1600898804.00
64.000000
-0.00
-0.00
-0.00
-0.00
-0.00
-0.00
-0.00
-0.00
-0.00
-0.00
0.00
0.01
0.01
-0.00
-0.03
-0.05
-0.05
0.00
0.13
0.36
0.66
1.01
1.37
1.72
2.06
2.40
2.79
3.24
3.80
4.42
5.06
5.66
6.20
6.68
7.15
7.68
8.31
9.14
10.09
11.04
11.88
12.56
13.14
13.76
14.65
15.96
17.91
20.32
22.90
25.38
27.58
29.57
31.68
34.32
37.81
42.54
48.15
54.10
59.83
64.97
69.58
74.14
79.34
85.71
93.76
103.00
112.62
121.73
129.77
136.75
143.30
150.75
157.77
166.64
177.95
191.79
206.97
220.57
228.25
225.36
208.53
176.87
132.76
80.05
23.07
-34.94
-92.44
-149.16
-205.23
-260.37
-313.74
-363.87
-409.83
-450.90
-486.48
-515.70
-537.17
-549.13
-549.84
-538.21
-514.00
-478.42
-433.57
-382.08
-326.59
-269.34
-212.07
-156.02
-102.25
-51.59
-5.05
36.52
72.45
102.47
126.72
145.71
160.15
170.74
178.11
182.65
184.66
184.36
182.04
178.02
172.73
166.57
159.90
152.95
145.87
138.74
131.59
124.47
117.44
110.58
103.95
97.61
91.59
85.92
80.59
75.62
71.03
66.81
62.97
59.52
56.45
53.77
51.47
49.54
47.97
46.75
45.84
45.17
44.66
44.19
43.60
42.72
41.36
39.38
36.65
33.10
28.74
23.58
17.76
11.47
4.94
-1.55
-7.75
-13.41
-18.32
-22.34
-25.39
-27.47
-28.61
-28.91
-28.51
-27.56
-26.21
-24.56
-22.74
-20.84
-18.92
-17.02
-15.18
-13.45
-11.83
-10.28
-8.76
-7.24
-5.74
-4.26
-2.80
-1.36
-0.05
1.15
2.27
3.39
4.45
5.36
6.01
6.28
6.12
5.34
4.00
2.30
0.66
-0.68
-1.36
-0.99
0.90
4.84
11.08
20.06
32.17
47.77
66.68
88.41
112.21
137.18
163.59
190.13
215.30
237.07
254.92
268.55
277.97
283.33
284.94
283.16
278.11
270.00
258.88
245.97
231.98
217.42
202.65
187.90
173.28
158.66
144.00
129.32
114.75
100.12
85.30
70.16
54.67
38.83
22.61
6.13
-10.38
-26.63
-42.50
-57.92
-72.83
-87.16
-100.81
-113.71
-125.69
-136.51
-145.79
-153.21
-158.41
-161.02
-160.64
-157.01
-149.97
-139.56
-126.00
-109.78
-91.54
-72.14
-52.42
-33.19
-15.15
1.17
15.44
27.49
37.34
45.09
50.98
55.23
58.12
59.89
60.73
60.85
60.38
59.43
58.08
56.40
54.46
52.29
49.96
47.50
44.95
42.33
39.66
36.93
34.14
31.31
28.42
25.50
22.57
19.65
16.75
13.86
10.95
7.95
4.79
1.46
-2.05
-5.68
-9.33
-12.94
-16.49
-20.01
-23.63
-27.44
-31.57
-36.02
-40.73
-45.60
-50.59
-55.72
-61.18
-67.22
-74.13
-82.08
-91.11
-101.03
-111.59
-122.52
-133.77
-145.49
-158.02
-171.80
-187.13
-204.12
-222.61
-242.27
-262.76
-283.86
-305.58
-328.19
-352.35
-378.97
-409.03
-443.08
-480.69
-520.11
-558.50
-592.58
-619.47
-637.42
-645.83
-645.08
-636.07
-619.97
-598.18
-572.43
-544.68
-516.83
-490.29
-465.85
-443.73
-423.87
-405.83
-388.80
-371.31
-351.38
-327.07
-297.19
-261.70
-221.75
-178.95
-134.70
-89.65
-43.87
2.75
49.88
96.60
141.62
183.73
222.18
256.79
287.74
315.15
338.94
358.67
373.78
383.98
389.53
391.32
390.68
388.96
387.08
385.41
384.01
383.15
383.70
386.79
393.04
401.68
410.41
416.11
415.99
408.44
393.01
369.72
338.42
298.96
251.98
199.87
146.67
96.97
54.11
19.09
-9.27
-32.95
-53.29
-70.40
-83.77
-93.37
-100.20
-105.84
-111.58
-117.69
-123.45
-127.81
-130.05
-129.89
-127.09
-120.95
-110.36
-94.33
-72.62
-46.24
-16.89
13.59
43.95
73.41
101.09
125.25
143.18
152.06
150.36
139.32
123.12
107.43
96.74
91.73
88.42
79.78
59.25
24.30
-21.50
-69.48
-109.12
-132.03
-134.84
-119.62
-92.25
-59.38
-26.30
4.28
31.78
56.66
79.63
101.73
124.61
150.89
182.95
220.88
260.64
294.03
311.66
307.65
283.34
247.98
215.21
197.10
198.94
217.50
243.42
266.07
278.06
276.82
263.48
240.44
210.02
175.03
140.29
113.22
101.99
112.24
143.38
187.64
232.41
264.99
277.39
269.17
246.13
216.96
188.99
165.67
146.46
128.57
109.20
86.87
61.73
34.82
7.22
-20.45
-48.24
-76.59
-105.98
-136.79
-169.49
-204.82
-243.76
-286.72
-332.48
-377.46
-416.04
-442.26
-452.17
-445.61
-426.33
-400.36
-373.49
-349.14
-327.82
-308.11
-288.28
-267.66
-246.80
-226.91
-208.94
-193.05
-178.77
-165.32
-152.15
-139.13
-126.70
-115.70
-107.15
-101.99
-100.77
-103.51
-109.49
-117.22
-124.31
-127.67
-123.97
-110.52
-86.29
-52.54
-12.78
28.11
65.28
95.21
116.32
128.87
134.18
133.84
129.22
121.33
111.07
99.44
87.62
76.88
68.36
62.79
60.28
60.28
61.66
63.09
63.41
61.94
58.56
53.49
47.02
39.35
30.54
20.67
9.97
-1.35
-13.28
-26.14
-40.34
-55.66
-70.57
-81.94
-85.86
-78.95
-60.02
-30.86
4.32
40.37
73.01
100.04
121.21
137.45
149.62
158.01
162.40
162.65
159.11
152.60
144.11
134.39
123.87
112.99
102.52
93.79
88.24
86.73
88.97
93.19
96.71
96.81
91.76
81.33
66.60
49.40
31.40
13.61
-3.69
-20.81
-38.29
-56.68
-76.29
-96.57
-115.72
-130.47
-136.72
-130.94
-111.62
-80.30
-41.27
-0.26
37.39
67.99
89.85
102.71
107.10
103.78
93.79
78.66
60.38
41.17
22.94
6.98
-6.12
-16.40
-24.22
-30.06
-34.43
-37.75
-40.39
-42.71
-45.10
-47.98
-51.75
-56.65
-62.71
-69.78
-77.66
-86.40
-96.39
-108.36
-123.03
-140.71
-160.63
-180.67
-197.37
-206.64
-204.83
-189.93
-162.44
-125.45
-84.02
-43.89
-10.05
14.27
27.91
31.39
26.29
14.66
-1.04
-17.84
-32.36
-41.44
-43.19
-37.66
-26.98
-14.35
-2.63
6.75
14.02
20.50
27.75
37.02
49.31
65.50
86.38
112.08
141.48
171.99
200.01
221.93
235.17
238.74
233.26
220.32
201.96
180.12
156.28
131.30
105.56
79.19
52.56
26.63
3.10
-15.86
-28.21
-32.74
-29.75
-21.48
-12.03
-6.61
-10.00
-24.88
-50.35
-81.76
-111.84
-132.93
-139.50
-129.88
-106.59
-75.49
-43.87
-18.19
-2.14
4.57
5.97
8.21
17.02
35.41
62.58
94.55
126.17
153.23
173.71
187.65
196.13
200.16
200.25
196.57
189.54
180.13
169.54
158.68
147.54
135.00
119.13
98.02
70.83
38.81
5.60
-23.41
-42.82
-49.44
-43.93
-30.88
-17.10
-8.75
-8.85
-16.18
-26.32
-33.96
-35.42
-30.06
-20.12
-9.27
-0.76
3.73
4.28
2.06
-1.67
-6.27
-11.93
-19.41
-29.52
-42.64
-58.40
-75.78
-93.55
-110.91
-127.86
-144.94
-162.41
-179.23
-192.60
-198.54
-193.31
-175.25
-145.86
-109.52
-72.07
-38.77
-12.76
5.31
16.66
23.08
25.97
25.94
23.10
17.58
9.88
0.97
-8.11
-16.48
-23.64
-29.50
-34.17
-37.87
-40.85
-43.48
-46.22
-49.57
-53.89
-59.28
-65.47
-71.94
-78.11
-83.68
-88.73
-93.86
-100.03
-108.26
-119.03
-131.78
-144.43
-153.51
-154.94
-145.30
-123.16
-89.86
-49.34
-6.99
31.94
63.62
86.28
99.93
105.58
104.58
98.31
88.20
75.81
62.73
50.33
39.41
30.06
21.91
14.47
7.49
1.10
-4.51
-9.41
-14.13
-19.55
-26.55
-35.51
-46.08
-57.34
-68.18
-77.84
-86.22
-93.83
-101.62
-110.59
-121.44
-134.29
-148.45
-162.31
-173.36
-178.59
-175.27
-161.77
-138.31
-106.88
-70.66
-32.72
5.14
42.77
80.97
119.99
158.17
191.64
215.39
225.37
220.40
202.79
177.37
149.51
123.40
101.39
84.49
73.41
68.93
71.14
78.20
85.78
87.88
79.30
58.03
26.50
-9.43
-42.87
-68.70
-85.15
-93.58
-97.04
-98.64
-100.48
-103.47
-107.58
-111.93
-114.73
-113.32
-104.76
-87.00
-60.00
-26.18
10.24
44.61
73.52
95.49
110.93
121.22
127.69
131.02
131.27
128.32
122.32
113.94
104.27
94.41
85.11
76.47
68.11
59.41
49.93
39.77
29.57
20.20
12.41
6.43
1.90
-1.92
-5.96
-11.10
-18.04
-27.28
-38.95
-52.47
-66.14
-77.11
-81.94
-77.64
-63.02
-39.43
-10.61
18.38
42.69
58.94
65.73
63.33
52.98
36.39
15.59
-7.07
-28.96
-47.64
-61.58
-70.63
-75.96
-79.44
-82.57
-85.80
-88.37
-88.77
-85.69
-78.75
-68.80
-57.81
-48.37
-42.97
-43.28
-49.50
-59.98
-71.24
-78.74
-78.16
-66.88
-45.01
-15.48
17.00
47.52
72.52
90.39
101.24
105.98
105.42
100.01
90.18
76.89
62.00
47.90
36.78
29.74
26.42
25.27
24.38
22.38
18.97
14.88
11.38
9.47
9.36
10.29
10.75
8.87
2.99
-7.82
-23.23
-41.22
-58.16
-69.49
-71.10
-60.83
-39.44
-10.56
20.63
49.13
71.67
87.22
96.46
100.61
100.39
95.79
86.56
73.10
56.97
40.72
27.06
17.76
12.96
11.19
10.17
7.86
3.39
-2.70
-8.93
-13.82
-16.68
-18.06
-19.47
-22.79
-29.62
-40.78
-56.07
-74.00
-91.72
-105.14
-109.45
-100.27
-75.11
-34.63
17.07
73.29
126.62
170.96
202.86
221.77
229.17
227.34
218.54
204.67
187.57
169.19
151.48
135.81
122.46
110.43
97.96
83.40
66.00
46.30
25.75
6.10
-11.37
-26.26
-39.02
-50.62
-62.11
-74.20
-87.12
-100.78
-115.03
-129.95
-145.78
-162.55
-179.40
-194.26
-204.00
-205.23
-195.51
-174.41
-143.89
-107.80
-70.73
-36.68
-8.14
14.10
30.59
42.47
50.86
56.57
59.96
61.29
60.92
59.43
57.48
55.48
53.37
50.58
46.29
39.88
31.35
21.40
11.24
2.15
-5.07
-10.40
-14.65
-19.21
-25.60
-35.06
-48.31
-65.12
-84.05
-102.23
-115.67
-120.11
-112.38
-91.75
-60.55
-23.63
13.11
44.70
68.36
83.70
91.87
94.33
92.05
85.55
75.44
63.09
50.61
40.23
33.33
29.90
28.50
27.06
23.93
18.61
11.91
5.46
0.81
-1.30
-1.37
-0.91
-1.92
-6.31
-15.31
-29.05
-46.23
-63.97
-77.99
-83.54
-76.82
-56.42
-24.28
14.73
54.25
88.44
113.68
129.02
135.58
135.18
129.37
119.03
104.89
88.16
70.82
55.36
43.85
37.21
34.81
34.69
34.43
32.14
27.08
19.79
11.56
3.71
-3.08
-9.05
-15.15
-22.63
-32.57
-45.56
-61.53
-79.41
-97.00
-110.93
-117.32
-112.87
-96.19
-68.64
-34.21
1.63
33.65
58.28
74.25
82.17
83.63
80.16
72.86
62.39
49.43
34.97
20.36
7.07
-3.76
-11.58
-16.64
-19.76
-22.08
-24.65
-28.09
-32.51
-37.54
-42.60
-47.17
-51.07
-54.53
-58.15
-62.66
-68.78
-77.18
-88.30
-102.16
-117.76
-132.60
-142.58
-142.78
-129.08
-100.06
-58.11
-9.13
39.30
80.41
110.25
128.28
136.43
137.49
133.58
125.66
114.06
99.32
82.81
66.63
52.89
42.84
36.32
32.00
28.13
23.42
17.69
11.85
7.30
5.06
5.04
5.94
5.63
2.14
-5.57
-17.08
-30.75
-44.30
-55.68
-63.79
-68.80
-71.92
-75.02
-80.06
-88.60
-101.31
-117.37
-134.01
-146.54
-149.17
-136.68
-106.55
-60.40
-4.15
53.60
104.15
141.38
163.06
170.65
167.60
157.56
143.16
125.97
107.12
88.09
70.81
57.19
48.28
43.78
42.01
40.75
38.13
33.47
27.42
21.49
17.26
15.54
15.84
16.61
15.78
11.65
3.66
-7.33
-19.36
-30.20
-38.20
-43.02
-45.67
-48.05
-52.39
-60.45
-73.12
-89.94
-108.69
-125.30
-134.32
-130.26
-109.50
-72.04
-22.16
32.53
83.41
123.52
149.39
161.25
161.84
154.53
142.02
125.98
107.59
88.16
69.41
53.04
40.02
30.24
22.55
15.49
8.04
0.07
-7.80
-14.74
-20.47
-25.55
-31.20
-38.71
-48.68
-60.63
-73.20
-84.60
-93.43
-99.24
-102.79
-105.79
-110.40
-118.49
-130.82
-146.29
-161.64
-171.93
-171.83
-157.56
-128.58
-88.37
-43.50
-1.54
31.42
52.40
61.75
61.93
55.78
45.21
31.05
13.67
-6.08
-26.43
-44.98
-59.54
-68.89
-73.15
-73.46
-71.36
-67.91
-63.32
-57.01
-48.07
-35.93
-20.88
-4.29
11.69
24.60
32.29
33.31
27.13
14.42
-2.57
-19.68
-31.17
-30.92
-14.60
18.31
63.47
112.60
156.13
186.52
200.58
199.90
189.31
174.24
158.52
143.56
128.81
113.09
95.71
76.99
58.05
40.18
24.26
10.51
-1.36
-11.85
-21.25
-29.58
-36.69
-42.48
-47.06
-50.82
-54.25
-57.74
-61.50
-65.62
-70.43
-76.76
-85.79
-98.47
-114.42
-130.95
-142.95
-144.04
-128.72
-94.95
-45.52
12.26
68.77
115.19
146.06
160.33
160.59
151.20
136.35
118.96
100.64
82.22
64.36
47.80
33.22
21.05
11.26
3.54
-2.51
-7.19
-10.78
-13.53
-15.83
-18.18
-21.04
-24.76
-29.47
-35.13
-41.56
-48.58
-56.06
-64.13
-73.38
-84.62
-98.36
-113.88
-128.43
-137.32
-135.14
-117.90
-84.99
-40.04
9.94
56.86
94.15
118.43
129.82
130.77
124.48
113.67
100.18
85.21
69.80
55.05
42.03
31.51
23.72
18.35
14.69
12.06
9.98
8.29
7.01
6.08
5.09
3.19
-0.60
-6.95
-15.74
-25.89
-35.74
-43.84
-49.90
-55.14
-61.83
-72.03
-85.99
-101.34
-113.48
-117.04
-107.90
-84.54
-48.48
-3.64
44.93
92.04
133.18
164.87
184.94
192.75
189.45
177.82
161.76
145.38
132.13
124.11
121.94
124.96
131.66
140.27
149.06
156.57
161.52
162.71
158.93
149.28
133.46
112.19
87.18
60.78
35.21
12.02
-8.33
-26.44
-43.59
-61.34
-81.49
-105.96
-136.46
-173.55
-215.46
-257.36
-292.05
-311.96
-312.08
-292.10
-256.78
-214.22
-172.81
-138.56
-113.86
-98.08
-89.12
-84.90
-84.03
-85.51
-88.31
-91.26
-93.46
-94.81
-96.13
-98.72
-103.60
-110.68
-118.36
-124.06
-125.25
-120.70
-111.30
-100.11
-91.48
-89.50
-96.24
-110.41
-127.16
-139.25
-139.28
-122.43
-88.25
-41.09
11.44
61.13
101.72
130.29
147.05
153.95
153.19
146.39
134.78
119.79
103.50
88.32
76.14
67.57
61.76
56.86
50.95
42.67
31.44
17.16
-0.19
-20.61
-43.71
-68.44
-92.88
-114.59
-131.30
-141.51
-144.82
-141.61
-132.54
-118.14
-98.77
-74.81
-47.12
-16.96
14.32
45.90
77.75
110.30
143.50
175.82
203.95
223.49
230.57
223.67
204.57
177.83
149.11
123.02
101.68
84.51
69.23
53.41
35.71
16.28
-3.59
-22.37
-38.88
-52.64
-63.76
-72.60
-79.47
-84.69
-88.74
-92.29
-95.97
-99.74
-102.33
-100.99
-92.17
-72.90
-42.43
-3.19
39.60
79.52
111.16
131.68
141.40
142.84
139.20
132.93
125.22
116.36
106.36
95.70
85.27
75.99
68.29
61.87
55.88
49.56
42.58
35.35
28.64
23.08
18.58
14.09
7.96
-1.53
-15.44
-33.63
-54.84
-77.08
-98.55
-118.36
-137.05
-156.28
-177.88
-202.38
-227.98
-250.50
-264.40
-264.72
-248.81
-217.31
-173.92
-124.38
-75.03
-31.92
-0.10
16.61
16.13
-1.45
-33.54
-75.26
-120.49
-163.28
-199.37
-226.98
-246.77
-260.98
-272.22
-282.43
-292.16
-300.52
-305.39
-304.14
-294.26
-274.05
-243.21
-202.91
-155.68
-104.84
-53.91
-5.95
36.87
73.33
103.14
126.76
145.30
160.16
172.76
184.20
195.14
205.87
216.56
227.52
238.95
250.66
261.60
269.89
273.09
268.80
255.37
232.29
200.33
161.52
118.88
76.06
36.71
3.69
-21.45
-38.57
-48.51
-52.41
-51.16
-45.23
-34.87
-20.47
-2.65
17.76
40.00
63.21
86.37
108.02
126.40
139.82
147.09
147.86
142.52
132.01
117.41
99.92
81.10
63.06
48.45
40.04
39.79
48.04
63.02
81.35
98.99
112.53
120.07
121.34
117.23
109.07
97.97
84.72
69.98
54.58
39.72
26.86
17.42
12.39
12.04
15.83
22.49
30.33
37.63
42.95
45.43
44.85
41.62
36.65
31.03
25.86
21.90
19.34
17.77
16.27
13.64
8.82
1.33
-8.32
-18.38
-25.99
-27.92
-21.68
-6.57
15.75
41.61
66.61
86.99
100.70
107.54
108.46
104.66
97.01
86.13
72.84
58.62
45.47
35.40
29.67
28.42
30.64
34.67
38.79
41.59
42.28
40.66
37.00
31.82
25.68
19.00
11.97
4.74
-2.50
-9.34
-15.40
-20.54
-25.19
-30.14
-35.98
-42.33
-47.47
-48.76
-43.72
-31.38
-12.89
8.68
29.45
45.99
56.12
58.96
54.42
42.80
24.74
1.73
-23.56
-47.41
-65.86
-75.96
-76.67
-69.07
-55.64
-39.26
-22.23
-5.87
9.28
22.92
34.59
43.55
49.04
50.68
48.80
44.43
38.90
33.21
27.50
20.81
11.56
-1.68
-19.10
-39.06
-58.14
-72.08
-77.25
-72.01
-57.42
-36.87
-14.91
4.28
18.03
25.61
27.89
26.56
23.21
18.83
13.61
7.23
-0.71
-10.17
-20.47
-30.25
-37.88
-42.08
-42.54
-40.17
-36.82
-34.62
-35.22
-39.34
-46.98
-57.80
-71.48
-87.73
-105.93
-124.80
-142.62
-157.92
-170.31
-180.78
-191.00
-202.04
-212.97
-220.55
-220.06
-207.09
-179.33
-137.67
-86.11
-30.79
21.53
64.82
94.79
109.47
109.20
96.37
74.62
47.88
19.49
-8.62
-35.96
-63.19
-91.20
-120.23
-149.10
-174.98
-194.03
-202.55
-198.44
-182.10
-156.51
-126.34
-96.52
-71.02
-52.23
-41.26
-38.32
-42.92
-53.49
-66.70
-77.45
-79.79
-68.95
-43.35
-5.75
37.54
79.04
112.86
136.42
150.53
157.76
160.42
159.32
153.83
143.00
126.96
107.49
87.66
70.73
58.87
52.51
50.42
50.51
50.72
49.79
47.40
43.98
40.15
36.28
32.34
27.77
21.66
12.71
-0.64
-19.97
-46.10
-78.24
-113.31
-145.96
-169.77
-178.99
-170.36
-144.14
-104.06
-56.09
-6.88
37.68
73.43
98.12
111.34
114.04
108.20
96.44
81.61
66.48
53.25
43.34
37.15
34.11
32.96
32.18
30.67
28.04
24.73
21.54
19.15
17.56
16.07
13.34
7.94
-1.26
-14.51
-30.86
-47.92
-62.21
-69.93
-68.17
-55.89
-34.49
-7.28
21.58
48.47
71.17
88.84
101.42
108.86
110.70
106.44
96.18
81.15
63.66
46.44
31.76
20.69
12.95
7.32
2.44
-2.53
-7.59
-12.11
-15.33
-17.07
-17.98
-19.55
-23.63
-31.82
-44.70
-61.31
-78.93
-93.43
-100.21
-95.51
-77.80
-48.43
-11.43
27.74
63.77
92.98
113.81
126.50
132.22
132.11
127.05
117.84
105.51
91.44
77.02
63.13
49.81
36.48
22.50
7.81
-6.68
-19.35
-28.54
-33.27
-33.81
-31.68
-29.22
-28.93
-32.77
-41.76
-55.60
-72.60
-89.80
-103.44
-109.85
-106.52
-92.98
-71.14
-44.74
-18.12
5.18
23.33
36.26
44.97
50.40
52.80
51.78
46.98
38.83
28.87
19.29
12.08
8.13
6.96
7.06
6.75
4.98
1.78
-1.86
-4.54
-4.98
-2.54
2.61
9.52
16.53
21.48
22.21
17.30
6.92
-6.75
-19.81
-27.67
-26.64
-15.21
5.35
31.41
58.22
81.33
97.64
105.85
106.17
99.80
88.26
73.09
55.79
37.81
20.66
5.70
-6.24
-15.22
-22.33
-29.24
-37.38
-47.13
-57.47
-66.30
-71.32
-70.91
-64.68
-53.39
-38.57
-22.11
-6.03
7.62
16.78
19.67
15.13
3.21
-14.37
-34.13
-51.17
-60.29
-57.42
-41.10
-13.19
21.51
56.82
87.13
109.11
122.21
128.02
128.89
126.64
121.99
114.74
104.54
91.50
76.56
61.29
47.46
36.44
28.68
23.69
20.25
16.95
12.81
7.54
1.52
-4.59
-10.22
-15.02
-18.86
-21.65
-23.55
-25.21
-27.98
-33.46
-42.55
-54.20
-64.90
-69.44
-62.84
-42.64
-10.28
29.09
68.47
101.51
124.40
136.36
138.73
133.43
121.82
104.50
81.99
55.64
28.03
2.47
-18.08
-32.08
-40.03
-44.04
-46.76
-50.09
-54.35
-58.34
-60.10
-58.05
-51.91
-42.98
-33.62
-26.36
-23.09
-24.63
-30.78
-40.45
-51.72
-61.90
-67.65
-65.66
-53.57
-31.09
-0.38
34.40
68.36
97.32
118.75
131.81
136.81
134.53
125.93
112.20
95.00
76.45
58.77
43.73
32.27
24.49
19.94
18.07
18.46
20.81
24.68
29.28
33.45
36.02
36.21
33.93
29.76
24.66
19.46
14.59
9.89
4.79
-1.50
-9.69
-20.14
-32.52
-45.60
-57.33
-65.17
-66.97
-61.70
-49.93
-33.72
-15.93
0.74
14.39
24.19
30.11
32.46
31.63
27.99
22.05
14.55
6.44
-1.31
-7.93
-12.96
-16.29
-18.05
-18.52
-18.05
-17.00
-15.77
-14.76
-14.37
-14.93
-16.78
-20.14
-25.00
-31.07
-37.69
-43.97
-49.12
-52.78
-55.23
-57.41
-60.51
-65.39
-72.02
-79.12
-84.31
-84.87
-78.65
-65.05
-45.43
-22.76
-0.68
17.73
30.76
38.27
41.28
41.06
38.57
34.21
28.07
20.31
11.50
2.56
-5.44
-11.64
-15.66
-17.67
-18.25
-18.15
-18.04
-18.34
-19.23
-20.74
-22.87
-25.65
-29.10
-33.07
-37.30
-41.46
-45.37
-49.22
-53.60
-59.18
-66.26
-74.19
-81.19
-84.73
-82.33
-72.61
-55.97
-34.62
-11.84
9.10
25.90
37.71
44.86
48.23
48.68
46.70
42.49
36.27
28.51
20.07
11.97
5.16
0.26
-2.63
-3.94
-4.43
-4.91
-5.97
-7.79
-10.13
-12.58
-14.82
-16.83
-18.98
-21.87
-26.06
-31.90
-39.36
-48.12
-57.48
-66.36
-73.21
-76.12
-73.31
-63.70
-47.52
-26.57
-3.81
17.45
34.43
45.62
50.92
51.27
48.03
42.45
35.34
27.09
17.97
8.39
-0.97
-9.37
-16.47
-22.69
-29.15
-37.11
-47.01
-57.83
-67.23
-72.49
-71.86
-65.49
-55.52
-45.13
-37.19
-33.09
-32.52
-34.15
-36.75
-39.87
-43.73
-48.21
-51.83
-51.52
-43.62
-25.61
2.15
35.90
69.61
97.15
114.60
121.35
119.70
113.12
104.55
95.40
85.67
74.81
62.54
49.25
35.86
23.32
12.32
3.24
-3.68
-8.15
-9.87
-8.80
-5.45
-1.08
2.63
4.14
2.52
-2.16
-9.01
-16.71
-24.03
-30.18
-35.02
-38.96
-42.96
-48.18
-55.53
-64.86
-74.37
-80.67
-79.68
-68.28
-45.83
-14.89
19.53
51.67
76.98
93.34
100.99
101.64
97.20
89.13
78.34
65.69
52.33
39.73
29.21
21.40
15.98
11.94
8.09
3.78
-0.74
-4.51
-6.45
-6.06
-3.90
-1.45
-0.47
-2.23
-6.90
-13.57
-20.74
-27.02
-31.71
-34.95
-37.60
-40.89
-46.10
-54.18
-65.26
-78.19
-90.17
-97.19
-95.09
-81.29
-56.12
-23.17
11.81
42.96
66.18
80.15
85.90
85.57
81.01
73.29
62.92
50.54
37.37
25.07
15.13
8.25
4.14
1.82
0.19
-1.37
-2.75
-3.29
-2.31
0.34
3.96
7.12
8.16
5.94
0.33
-7.63
-16.23
-23.75
-29.17
-32.47
-34.43
-36.27
-39.25
-44.43
-52.48
-63.24
-75.29
-85.69
-90.44
-85.74
-69.60
-43.08
-10.20
23.30
52.00
72.48
83.90
87.48
85.25
79.10
70.31
59.71
48.12
36.41
25.39
15.55
6.97
-0.36
-6.31
-10.49
-12.41
-11.92
-9.50
-6.26
-3.66
-3.00
-4.97
-9.47
-15.75
-22.68
-29.20
-34.58
-38.61
-41.70
-44.77
-49.13
-55.94
-65.41
-76.20
-85.20
-88.34
-82.03
-64.79
-38.19
-6.60
24.41
50.01
67.58
77.09
80.21
79.01
74.81
67.99
58.43
46.28
32.46
18.58
6.53
-2.19
-6.87
-7.77
-5.97
-2.91
-0.06
1.55
1.45
-0.23
-3.04
-6.43
-10.07
-13.88
-18.06
-23.02
-29.34
-37.64
-48.31
-60.93
-73.78
-83.79
-87.10
-80.41
-62.44
-34.78
-1.73
31.17
58.88
78.47
89.55
93.69
93.15
89.69
84.10
76.39
66.45
54.68
42.12
30.26
20.50
13.62
9.59
7.67
6.76
5.84
4.26
1.88
-1.11
-4.47
-8.15
-12.36
-17.53
-24.04
-32.07
-41.58
-52.52
-64.90
-78.57
-92.69
-105.08
-112.29
-110.44
-96.78
-71.28
-37.17
-0.08
33.74
59.61
75.56
82.40
82.51
78.51
72.26
64.63
55.92
46.30
36.16
26.12
16.96
9.42
4.07
1.17
0.58
1.76
3.83
5.78
6.69
5.97
3.43
-0.76
-6.19
-12.42
-19.03
-25.70
-32.25
-38.72
-45.45
-53.00
-61.74
-71.18
-79.47
-83.49
-79.70
-65.71
-41.53
-10.12
23.45
53.67
76.37
89.78
94.50
92.52
86.14
77.18
66.90
56.20
46.00
37.21
30.61
26.46
24.51
23.97
23.97
23.93
23.77
23.87
24.68
26.18
27.64
27.68
24.90
18.69
9.64
-0.54
-9.75
-16.48
-20.49
-22.83
-25.31
-29.71
-37.15
-47.77
-60.51
-73.21
-82.67
-85.30
-78.06
-59.73
-31.72
2.02
36.14
65.65
87.37
100.45
105.79
104.85
98.63
87.40
71.41
51.85
31.47
14.24
4.08
3.13
10.66
23.08
35.35
42.99
43.83
38.59
30.01
21.23
14.15
8.90
4.25
-1.18
-7.97
-15.48
-22.49
-27.95
-31.72
-34.60
-37.87
-42.67
-49.42
-57.80
-67.01
-76.08
-84.00
-89.59
-91.48
-88.22
-78.88
-63.62
-43.96
-22.53
-2.30
14.37
26.23
33.21
36.01
35.59
32.79
28.26
22.55
16.16
9.70
3.73
-1.23
-4.82
-6.90
-7.57
-7.17
-6.17
-4.99
-4.04
-3.64
-4.09
-5.69
-8.61
-12.83
-18.03
-23.68
-29.16
-33.96
-37.91
-41.14
-44.14
-47.57
-51.97
-57.42
-63.11
-67.38
-68.07
-63.32
-52.37
-35.93
-16.11
4.35
22.94
38.06
49.18
56.59
60.89
62.60
61.96
59.06
54.05
47.32
39.57
31.79
24.98
20.09
17.66
17.73
19.80
23.04
26.54
29.58
31.81
33.21
33.90
34.03
33.66
32.84
31.73
30.57
29.51
28.32
26.36
22.83
17.35
10.50
3.93
-0.09
0.46
6.54
17.55
31.50
45.64
57.25
64.28
65.82
62.13
54.58
45.18
35.98
28.47
23.08
19.30
16.18
13.09
10.23
8.48
8.88
11.83
16.80
22.33
26.60
28.00
25.47
18.64
7.76
-6.34
-22.25
-38.21
-52.66
-64.80
-75.04
-84.90
-96.39
-110.92
-128.33
-146.50
-161.58
-169.22
-165.99
-150.79
-125.34
-93.85
-61.62
-33.40
-12.07
1.85
9.68
13.44
14.87
14.90
13.81
11.76
9.19
6.69
4.67
2.95
0.73
-2.86
-8.07
-13.89
-18.30
-19.09
-15.16
-7.22
2.16
9.66
12.72
10.69
5.09
-1.29
-5.83
-7.40
-6.82
-6.36
-8.66
-15.51
-27.12
-41.93
-56.84
-67.86
-71.02
-63.48
-44.60
-16.43
16.62
49.01
75.81
94.06
103.20
104.52
100.05
91.60
80.50
67.82
54.84
43.05
33.77
27.61
24.22
22.52
21.33
20.00
18.58
17.63
17.72
18.94
20.65
21.66
20.73
17.11
10.98
3.58
-3.19
-7.55
-8.66
-7.29
-5.89
-7.91
-16.77
-34.50
-60.78
-92.41
-123.74
-147.95
-159.01
-153.69
-132.61
-100.11
-62.64
-26.48
4.13
27.74
45.02
57.50
66.35
71.94
74.22
73.37
70.12
65.60
60.80
56.22
51.90
47.71
43.68
40.12
37.49
36.02
35.57
35.52
34.95
32.94
28.76
22.11
13.26
3.04
-7.31
-16.59
-24.15
-30.44
-37.01
-45.87
-58.32
-73.65
-88.71
-98.78
-99.28
-87.86
-65.45
-35.91
-4.51
23.88
45.92
60.03
65.73
63.13
52.81
36.00
14.88
-7.80
-29.17
-46.99
-59.85
-67.20
-69.01
-65.62
-57.80
-46.83
-34.51
-22.83
-13.60
-8.27
-7.83
-12.83
-23.40
-38.95
-58.02
-78.35
-97.40
-113.26
-125.15
-133.45
-138.80
-141.08
-138.71
-128.97
-109.33
-79.07
-40.27
2.44
43.30
77.44
102.39
118.43
127.71
132.56
134.16
132.06
124.98
112.09
94.18
73.74
54.19
38.42
27.56
20.67
15.42
9.36
0.94
-9.96
-22.35
-34.81
-46.22
-56.11
-64.74
-72.73
-80.68
-88.91
-97.38
-106.08
-115.16
-124.62
-133.68
-140.10
-140.28
-130.30
-107.73
-73.14
-30.49
14.05
54.24
85.87
107.60
120.50
126.69
127.95
125.27
119.02
109.57
97.76
84.78
71.91
60.14
50.05
41.79
35.30
30.37
26.75
24.06
21.81
19.38
16.19
11.79
6.08
-0.70
-8.05
-15.42
-22.48
-29.33
-36.68
-45.61
-57.10
-71.21
-86.38
-99.32
-105.74
-101.82
-85.73
-58.55
-23.95
13.05
47.69
76.65
98.43
112.85
120.42
121.89
118.23
110.81
101.40
91.87
83.62
77.22
72.43
68.60
65.23
62.30
60.27
59.58
60.17
61.20
61.16
58.46
52.14
42.37
30.41
18.03
6.81
-2.65
-10.85
-19.25
-29.76
-44.26
-64.06
-89.24
-117.95
-145.99
-167.31
-175.47
-165.97
-138.27
-96.41
-47.89
-1.11
37.46
64.96
81.96
90.99
94.70
94.60
91.03
83.93
73.71
61.57
49.28
38.53
30.40
25.15
22.33
21.25
21.26
21.97
23.17
24.75
26.46
27.89
28.49
27.74
25.27
20.96
14.89
7.03
-2.88
-15.23
-30.08
-46.32
-61.31
-71.07
-71.54
-60.13
-37.04
-5.38
29.82
63.44
91.79
113.29
128.13
137.14
140.94
139.62
133.14
122.01
107.78
92.92
80.18
71.72
68.36
69.33
72.78
76.59
79.38
80.94
82.07
83.63
85.52
86.02
82.07
70.27
48.19
15.20
-27.61
-78.17
-133.99
-192.19
-248.92
-298.95
-336.18
-355.22
-353.44
-332.26
-296.73
-253.68
-209.29
-167.47
-129.71
-96.28
-67.48
-44.28
-27.70
-17.73
-12.66
-9.30
-4.15
5.14
18.89
35.28
51.31
64.00
71.67
74.44
74.03
72.85
72.72
73.99
75.15
73.43
65.79
50.02
25.38
-7.07
-44.55
-82.67
-115.84
-137.97
-143.72
-130.20
-98.13
-52.15
0.38
51.44
94.59
126.22
145.53
153.62
152.18
142.92
127.38
107.27
84.71
61.99
41.13
23.38
9.06
-2.32
-11.59
-19.47
-26.34
-32.26
-37.09
-40.77
-43.50
-45.68
-47.90
-50.65
-54.26
-58.91
-64.75
-72.11
-81.47
-92.98
-105.84
-117.84
-125.47
-124.87
-113.33
-90.51
-58.90
-23.04
12.03
42.31
65.76
82.21
92.60
98.07
99.40
97.05
91.40
83.09
73.09
62.59
52.75
44.50
38.41
34.51
32.42
31.39
30.53
29.04
26.41
22.53
17.57
11.86
5.63
-1.01
-8.10
-15.81
-24.43
-34.40
-46.23
-60.19
-75.73
-90.91
-102.38
-106.15
-98.97
-79.79
-50.50
-15.52
19.57
49.94
72.75
87.48
95.22
97.60
95.92
90.90
82.96
72.63
60.88
49.02
38.43
30.17
24.72
21.90
21.03
21.11
21.16
20.45
18.57
15.47
11.30
6.34
0.78
-5.26
-11.72
-18.59
-25.98
-34.28
-44.17
-56.29
-70.63
-85.80
-98.78
-105.57
-102.50
-87.85
-62.81
-31.28
1.53
30.84
53.70
69.32
78.45
82.29
81.71
77.08
68.63
57.04
43.65
30.33
18.87
10.54
5.64
3.50
2.86
2.33
0.96
-1.58
-5.00
-8.69
-12.17
-15.33
-18.44
-22.03
-26.65
-32.76
-40.79
-51.04
-63.50
-77.26
-90.24
-99.25
-100.83
-92.48
-73.81
-46.96
-16.01
14.40
40.51
60.28
73.43
80.74
83.19
81.48
75.98
67.16
55.87
43.50
31.71
21.98
15.23
11.47
9.91
9.29
8.36
6.36
3.20
-0.60
-4.37
-7.59
-10.30
-12.97
-16.40
-21.36
-28.53
-38.26
-50.44
-64.05
-76.96
-86.03
-87.76
-79.51
-60.63
-32.98
-0.54
31.87
60.01
81.34
95.22
102.49
104.48
102.44
97.16
89.14
78.93
67.31
55.35
44.17
34.73
27.56
22.64
19.49
17.30
15.24
12.68
9.35
5.32
0.86
-3.81
-8.60
-13.65
-19.18
-25.44
-32.67
-41.20
-51.47
-63.70
-77.39
-90.78
-100.78
-103.67
-96.44
-78.06
-50.17
-16.68
17.53
48.12
72.37
89.30
99.28
103.23
102.13
96.93
88.66
78.55
67.91
57.91
49.37
42.74
38.21
35.91
35.91
38.10
42.01
46.63
50.55
52.29
50.78
45.70
37.68
27.99
18.19
9.60
2.90
-1.94
-5.64
-9.41
-14.56
-21.93
-31.28
-40.81
-47.13
-46.17
-34.49
-10.92
22.60
61.34
99.24
130.84
152.81
164.44
166.96
162.43
152.68
138.89
121.77
102.05
80.77
59.30
39.03
21.01
5.73
-6.89
-17.27
-25.82
-32.76
-38.03
-41.51
-43.34
-44.11
-44.87
-46.85
-50.85
-57.02
-64.72
-72.85
-80.39
-86.76
-92.14
-97.26
-103.25
-111.31
-122.35
-136.48
-152.54
-167.89
-178.62
-180.66
-171.10
-149.45
-117.97
-81.12
-44.05
-11.13
15.08
33.90
45.92
52.28
54.20
52.80
49.20
44.50
39.67
35.25
31.43
28.12
25.26
23.02
21.92
22.41
24.64
28.11
31.73
34.10
33.96
30.64
24.21
15.42
5.38
-4.84
-14.54
-23.66
-32.76
-42.92
-55.24
-70.28
-87.38
-104.35
-117.86
-124.31
-121.07
-107.41
-84.82
-56.50
-26.38
1.93
25.74
43.33
53.69
56.16
50.34
36.35
15.20
-11.02
-39.34
-66.56
-89.98
-107.96
-120.14
-127.13
-129.89
-129.26
-125.60
-118.92
-109.16
-96.47
-81.39
-65.02
-49.05
-35.67
-27.20
-25.35
-30.41
-40.77
-53.19
-63.71
-68.86
-66.48
-56.06
-38.34
-14.89
12.34
41.16
69.20
94.17
114.29
128.87
138.42
144.40
148.56
152.21
155.88
159.40
162.25
164.12
165.08
165.60
166.26
167.26
168.17
167.85
164.83
157.91
146.79
132.43
116.81
102.28
90.45
81.51
73.92
64.96
51.88
33.03
8.67
-19.15
-47.21
-72.19
-91.36
-102.91
-105.84
-99.88
-85.60
-64.63
-39.82
-14.82
6.69
22.02
30.19
32.02
29.60
25.33
21.12
17.89
15.68
13.96
12.16
10.00
7.54
5.02
2.61
0.26
-2.33
-5.50
-9.45
-14.04
-18.89
-23.50
-27.41
-30.34
-32.22
-33.24
-33.76
-34.32
-35.54
-38.04
-42.31
-48.57
-56.58
-65.37
-73.21
-77.76
-76.71
-68.60
-53.54
-33.39
-11.22
9.75
27.11
39.81
48.11
52.88
54.97
54.82
52.46
47.96
41.67
34.42
27.29
21.32
17.10
14.70
13.70
13.40
13.22
12.85
12.35
12.02
12.18
12.94
14.07
15.10
15.41
14.55
12.43
9.33
5.87
2.66
-0.04
-2.38
-4.70
-7.22
-9.65
-11.30
-11.44
-9.63
-5.93
-0.72
5.74
13.45
22.41
32.19
41.53
48.46
50.95
47.77
38.94
25.79
10.33
-5.42
-19.86
-31.97
-41.26
-47.71
-51.84
-54.66
-57.35
-60.90
-65.73
-71.50
-77.40
-82.50
-86.25
-88.72
-90.61
-93.18
-97.99
-106.61
-120.07
-138.27
-159.39
-179.95
-195.53
-202.18
-197.88
-183.31
-161.72
-137.73
-115.81
-98.76
-87.02
-78.80
-71.05
-60.80
-46.29
-27.71
-7.08
12.29
26.88
33.93
32.25
22.54
7.33
-9.54
-23.56
-30.66
-28.20
-15.84
4.30
28.28
51.63
70.80
83.96
90.86
92.08
88.28
80.07
68.47
55.53
44.49
38.79
40.58
49.55
62.84
76.27
86.17
90.97
91.41
89.64
87.75
86.53
85.36
82.87
77.97
70.62
61.91
53.46
46.59
41.76
38.40
35.29
31.32
26.00
19.75
13.71
9.07
6.46
5.56
5.20
3.83
0.11
-6.71
-16.59
-28.73
-41.63
-53.19
-61.02
-62.93
-57.65
-45.31
-27.56
-7.15
12.96
30.40
43.89
53.13
58.34
59.91
58.13
53.33
46.12
37.47
28.57
20.59
14.32
10.08
7.68
6.54
5.95
5.23
3.97
2.08
-0.22
-2.56
-4.62
-6.30
-7.71
-9.10
-10.77
-12.98
-16.09
-20.53
-26.65
-34.36
-42.69
-49.65
-52.70
-49.64
-39.60
-23.60
-4.23
15.23
31.97
44.42
52.40
56.72
58.40
58.34
56.97
54.49
51.00
46.57
41.26
35.14
28.33
21.12
14.08
7.97
3.58
1.41
1.41
2.95
4.94
6.23
5.89
3.52
-0.73
-6.35
-12.60
-18.87
-24.71
-30.08
-35.35
-41.12
-47.86
-55.32
-62.18
-66.14
-64.73
-56.34
-41.18
-21.44
-0.54
18.17
32.50
41.95
47.26
49.52
49.48
47.28
42.90
36.56
29.12
21.75
15.57
11.12
8.34
6.75
5.83
5.33
5.31
5.89
7.00
8.21
8.79
8.05
5.59
1.55
-3.46
-8.60
-13.14
-16.73
-19.50
-22.10
-25.52
-30.81
-38.66
-48.87
-59.96
-69.25
-73.51
-70.11
-58.18
-39.26
-16.80
5.02
22.88
35.29
42.69
46.55
48.24
48.27
46.21
41.37
33.53
23.37
12.42
2.41
-5.27
-10.01
-11.93
-11.67
-10.03
-7.69
-5.16
-2.86
-1.20
-0.60
-1.43
-3.84
-7.69
-12.49
-17.61
-22.52
-27.01
-31.39
-36.31
-42.27
-49.03
-55.22
-58.57
-56.69
-48.24
-33.67
-15.28
3.60
19.95
32.01
39.74
44.24
46.84
48.39
48.92
47.97
45.12
40.40
34.43
28.17
22.64
18.55
16.23
15.45
15.70
16.23
16.40
15.83
14.50
12.72
10.87
9.26
7.91
6.54
4.60
1.44
-3.46
-10.25
-18.20
-25.45
-28.98
-25.33
-11.77
12.29
44.61
80.29
113.13
137.46
149.82
149.80
139.80
123.87
106.12
89.44
74.93
62.21
50.22
38.11
25.73
13.63
2.66
-6.61
-14.16
-20.41
-25.85
-30.73
-35.05
-38.75
-41.92
-44.88
-47.98
-51.39
-55.05
-58.72
-62.27
-65.91
-70.29
-76.33
-84.77
-95.50
-107.02
-116.41
-120.01
-114.71
-99.22
-74.83
-45.05
-14.50
12.60
33.62
47.76
55.70
58.71
58.08
54.82
49.74
43.65
37.31
31.30
25.89
21.06
16.61
12.46
8.67
5.57
3.49
2.50
2.34
2.33
1.66
-0.35
-3.94
-8.84
-14.39
-19.81
-24.54
-28.38
-31.60
-34.92
-39.37
-46.09
-55.76
-67.92
-80.54
-90.14
-92.76
-85.45
-67.65
-41.62
-11.81
16.84
40.49
57.40
67.77
72.81
73.71
71.12
65.28
56.52
45.71
34.22
23.52
14.69
8.21
3.94
1.45
0.28
0.08
0.54
1.23
1.55
0.80
-1.56
-5.68
-11.24
-17.50
-23.62
-29.00
-33.46
-37.35
-41.40
-46.55
-53.62
-62.98
-74.04
-85.01
-92.95
-94.57
-87.25
-70.37
-45.76
-17.26
10.56
33.95
50.98
61.65
67.16
68.86
67.69
64.05
58.22
50.73
42.48
34.52
27.78
22.87
20.00
19.03
19.50
20.67
21.63
21.57
19.96
16.70
12.04
6.40
0.15
-6.37
-12.85
-19.01
-24.63
-29.76
-35.02
-41.42
-49.99
-60.94
-72.91
-82.94
-87.15
-82.17
-66.58
-41.77
-11.60
18.85
44.93
63.77
74.74
78.96
78.37
74.74
69.33
62.85
55.81
48.72
42.14
36.54
32.20
29.24
27.61
27.25
28.11
30.05
32.73
35.64
38.13
39.63
39.80
38.72
36.91
35.12
34.04
33.83
33.77
32.26
27.20
16.87
0.94
-19.08
-39.91
-57.40
-67.76
-68.78
-60.41
-44.80
-25.51
-6.53
8.85
18.80
23.21
23.35
21.17
18.47
16.37
15.22
14.91
15.29
16.40
18.48
21.75
26.20
31.59
37.49
43.45
49.16
54.43
59.25
63.62
67.48
70.50
71.91
70.45
64.41
52.02
31.89
3.49
-32.70
-74.95
-120.37
-164.82
-203.34
-230.76
-242.90
-237.78
-216.42
-182.79
-142.79
-102.48
-66.59
-37.54
-15.56
0.48
12.07
20.39
26.03
29.21
30.09
28.87
25.95
21.89
17.46
13.52
10.90
10.17
11.34
13.78
16.22
17.14
15.26
10.03
1.80
-8.34
-18.98
-28.88
-37.36
-44.47
-50.85
-57.68
-66.37
-78.14
-93.22
-110.10
-125.27
-133.84
-131.16
-114.71
-85.42
-47.58
-7.31
29.54
59.20
80.47
94.10
101.51
103.84
101.70
95.53
86.09
74.60
62.47
50.89
40.57
31.85
24.84
19.62
16.19
14.34
13.50
12.73
10.94
7.27
1.30
-6.82
-16.50
-26.91
-37.28
-47.11
-56.34
-65.56
-75.88
-88.59
-104.25
-121.78
-138.00
-148.12
-147.31
-132.66
-104.67
-67.33
-26.76
10.96
41.65
63.81
78.13
86.28
89.75
89.39
85.60
78.82
69.90
60.03
50.42
41.99
35.19
30.02
26.11
23.04
20.31
17.46
14.13
10.04
5.07
-0.81
-7.49
-14.79
-22.53
-30.60
-39.04
-48.09
-58.31
-70.36
-84.49
-99.85
-114.02
-123.20
-123.30
-111.49
-87.53
-54.18
-16.31
20.63
52.39
76.71
93.31
103.02
106.98
106.17
101.41
93.70
84.26
74.42
65.23
57.24
50.50
44.79
39.90
35.86
32.90
31.14
30.34
29.66
27.88
23.79
16.69
6.76
-5.03
-17.23
-28.53
-38.17
-46.19
-53.31
-60.77
-69.96
-81.95
-96.83
-113.02
-127.19
-134.78
-131.48
-114.95
-86.04
-48.67
-8.63
28.49
58.89
81.17
95.82
104.12
107.20
105.79
100.54
92.45
82.95
73.58
65.48
58.99
53.77
49.14
44.60
40.13
36.19
33.36
31.89
31.32
30.52
28.05
22.72
14.18
3.09
-9.14
-20.89
-30.94
-38.89
-45.26
-51.23
-58.31
-67.84
-80.39
-95.17
-109.66
-119.87
-121.39
-110.97
-87.93
-54.74
-16.35
21.53
54.21
79.19
96.26
106.54
111.36
111.68
107.96
100.75
91.14
80.70
71.15
63.69
58.55
55.07
52.10
48.69
44.62
40.50
37.27
35.66
35.47
35.46
33.79
28.85
19.94
7.78
-5.91
-19.08
-30.12
-38.52
-44.89
-50.54
-57.03
-65.69
-77.38
-92.09
-108.62
-124.20
-134.85
-136.27
-125.42
-102.01
-68.93
-31.45
4.51
34.34
55.82
69.01
75.27
76.11
72.55
65.26
54.94
42.68
29.87
17.84
7.42
-1.13
-8.02
-13.69
-18.48
-22.56
-25.87
-28.27
-29.68
-30.21
-30.09
-29.66
-29.18
-28.71
-28.20
-27.58
-26.92
-26.59
-27.35
-30.16
-35.85
-44.58
-55.18
-65.00
-70.32
-67.45
-54.10
-30.43
0.73
34.70
66.49
92.22
109.91
119.48
121.96
118.74
111.03
99.71
85.61
69.66
53.06
37.11
23.15
12.21
4.76
0.58
-1.15
-1.67
-2.22
-3.71
-6.49
-10.39
-14.92
-19.62
-24.24
-28.89
-33.86
-39.55
-46.31
-54.50
-64.41
-76.08
-88.77
-100.57
-108.37
-108.55
-98.33
-77.00
-46.57
-11.34
23.49
53.44
75.91
90.36
97.64
99.10
95.93
89.06
79.40
68.03
56.24
45.22
35.73
27.99
21.80
16.81
12.89
10.14
8.79
8.82
9.77
10.69
10.47
8.30
4.01
-1.85
-8.27
-14.27
-19.28
-23.38
-27.27
-32.06
-38.98
-49.04
-62.43
-77.94
-92.73
-102.68
-103.53
-92.49
-69.50
-37.47
-1.37
33.49
63.07
85.39
100.30
108.58
111.06
108.31
100.86
89.64
76.11
61.99
48.68
36.95
26.81
17.84
9.65
2.21
-4.07
-8.63
-11.23
-12.30
-13.01
-14.98
-19.66
-27.72
-38.76
-51.44
-64.07
-75.36
-84.83
-92.97
-100.89
-109.87
-120.94
-134.49
-149.89
-165.32
-177.78
-183.66
-179.88
-165.14
-140.77
-110.57
-79.72
-52.94
-33.04
-20.39
-13.47
-10.15
-8.74
-8.38
-8.76
-9.45
-9.69
-8.67
-6.13
-2.74
0.10
0.86
-1.22
-5.69
-11.12
-15.79
-18.39
-18.50
-16.55
-13.42
-10.07
-7.31
-5.81
-6.00
-7.95
-11.13
-14.48
-16.66
-16.86
-15.34
-13.52
-13.31
-16.03
-21.38
-27.32
-30.57
-27.92
-17.20
2.08
28.75
60.36
93.64
124.77
149.89
165.76
170.60
164.58
149.86
129.98
108.88
90.08
76.09
68.29
66.83
70.63
77.61
85.21
91.19
94.35
94.85
93.77
92.25
90.68
88.45
84.36
77.36
67.19
54.38
39.84
24.26
7.86
-9.32
-26.73
-42.79
-55.01
-60.71
-58.19
-47.57
-30.84
-11.15
8.38
25.59
39.65
50.63
58.74
63.80
65.24
62.55
55.85
46.14
35.09
24.42
15.32
8.20
2.80
-1.46
-5.00
-7.91
-9.99
-11.10
-11.45
-11.75
-13.02
-16.06
-21.07
-27.38
-33.74
-38.83
-41.91
-42.96
-42.64
-41.87
-41.55
-42.46
-45.23
-50.21
-57.14
-64.74
-70.71
-72.21
-66.72
-53.03
-31.65
-4.53
25.64
56.29
85.40
111.59
133.80
151.07
162.58
167.82
166.96
160.84
150.84
138.54
125.36
112.33
100.09
88.98
79.15
70.71
63.72
58.21
54.04
50.94
48.40
45.72
42.13
36.92
29.64
20.17
8.62
-4.87
-20.50
-38.66
-59.48
-82.06
-103.99
-121.47
-130.39
-127.71
-112.50
-86.01
-50.83
-9.87
34.15
78.40
119.26
152.15
172.46
177.21
166.41
143.32
113.13
80.90
49.73
20.34
-8.06
-36.29
-64.12
-90.10
-112.39
-129.75
-142.13
-150.69
-157.21
-163.48
-170.84
-179.92
-190.69
-202.59
-214.65
-225.61
-234.01
-238.28
-237.01
-229.28
-215.26
-196.47
-175.63
-155.77
-139.10
-125.89
-114.31
-101.23
-83.73
-60.44
-32.12
-1.17
29.54
57.70
81.99
101.88
117.09
127.30
132.25
132.02
127.32
119.39
109.74
99.71
90.26
81.89
74.68
68.53
63.22
58.52
54.29
50.46
46.98
43.66
40.17
36.05
30.97
24.90
18.21
11.57
5.67
0.82
-3.25
-7.38
-12.78
-20.51
-30.91
-43.15
-55.11
-63.84
-66.41
-60.96
-47.37
-27.41
-4.10
19.24
39.94
56.45
68.37
76.01
79.99
80.92
79.23
75.31
69.51
62.21
53.80
44.76
35.72
27.33
20.32
15.25
12.40
11.55
12.03
12.81
12.74
10.92
6.97
1.05
-6.21
-14.00
-21.68
-29.04
-36.41
-44.47
-53.78
-64.29
-74.82
-83.12
-86.43
-82.38
-69.96
-49.99
-24.95
1.78
26.89
48.00
63.85
74.26
79.67
80.79
78.39
73.26
66.28
58.29
50.06
42.16
34.92
28.43
22.61
17.37
12.68
8.61
5.33
2.97
1.43
0.30
-1.11
-3.59
-7.76
-13.79
-21.38
-29.81
-38.28
-46.15
-53.13
-59.41
-65.46
-71.71
-78.19
-84.01
-87.42
-86.14
-78.28
-63.13
-41.72
-16.57
9.17
32.69
52.21
66.88
76.40
80.61
79.48
73.61
64.49
54.33
45.36
38.72
33.86
28.93
22.20
13.45
4.70
-0.54
0.87
9.85
24.25
39.66
51.24
55.76
52.61
43.46
30.98
17.55
4.44
-7.93
-19.51
-30.01
-38.99
-46.19
-51.94
-57.20
-62.85
-69.01
-74.53
-76.99
-73.68
-62.86
-44.75
-21.66
2.66
24.42
41.00
51.55
56.71
57.85
56.28
52.86
48.04
42.18
35.78
29.45
23.81
19.36
16.34
14.72
14.29
14.68
15.39
15.88
15.61
14.15
11.30
7.10
1.85
-3.96
-9.72
-14.90
-19.16
-22.53
-25.44
-28.71
-33.31
-40.00
-48.77
-58.51
-67.00
-71.41
-69.31
-59.60
-43.16
-22.64
-1.56
16.85
30.60
39.29
43.71
45.10
44.50
42.42
38.99
34.18
28.21
21.55
14.96
9.20
4.90
2.36
1.49
1.90
2.98
4.09
4.69
4.42
3.14
0.80
-2.46
-6.46
-10.84
-15.22
-19.25
-22.75
-25.96
-29.53
-34.19
-40.29
-47.22
-53.19
-55.79
-52.89
-43.67
-29.17
-11.96
4.83
18.79
28.84
35.30
39.10
41.11
41.64
40.56
37.77
33.53
28.60
23.90
20.23
17.97
17.08
17.32
18.45
20.33
22.94
26.18
29.83
33.44
36.53
38.65
39.60
39.50
38.74
37.91
37.47
37.50
37.65
37.22
35.72
33.50
32.13
34.15
42.17
57.75
80.58
108.50
138.44
167.50
193.73
216.11
233.83
245.86
250.84
247.78
236.90
219.85
199.13
176.77
153.59
129.17
102.93
75.26
48.10
24.20
5.53
-8.00
-18.98
-31.41
-49.02
-73.70
-104.93
-140.38
-177.14
-212.74
-245.60
-274.77
-299.41
-318.63
-331.65
-338.43
-339.96
-338.18
-335.27
-332.44
-329.08
-322.79
-310.38
-289.46
-259.83
-223.87
-185.77
-149.87
-119.23
-94.94
-76.52
-62.97
-53.70
-48.84
-48.80
-53.56
-62.10
-72.32
-81.27
-85.62
-82.16
-68.38
-43.07
-6.96
37.04
84.20
129.03
166.66
194.01
210.35
216.95
216.20
210.75
202.78
193.77
184.41
174.69
163.91
150.91
134.30
112.99
86.68
56.38
24.58
-4.89
-27.65
-39.95
-39.86
-27.97
-7.40
17.16
40.89
60.10
73.00
79.53
80.68
77.77
71.96
64.16
55.11
45.54
36.08
27.26
19.44
12.87
7.74
4.26
2.49
2.28
3.10
4.03
4.03
2.15
-2.04
-8.38
-16.19
-24.57
-32.73
-40.28
-47.23
-54.02
-61.29
-69.80
-80.14
-92.30
-105.29
-116.90
-124.08
-123.82
-114.29
-95.62
-70.08
-41.29
-13.11
11.38
30.36
43.16
49.83
50.67
46.08
36.68
23.34
7.45
-8.97
-23.36
-32.94
-35.41
-29.89
-17.54
-1.40
14.46
26.43
32.49
32.73
28.83
22.93
16.58
10.39
4.34
-1.62
-7.11
-11.53
-14.72
-17.44
-21.28
-27.63
-36.44
-45.49
-50.83
-48.37
-35.93
-14.50
12.03
38.41
60.21
75.26
83.80
87.48
88.07
86.56
83.16
77.97
71.60
65.36
60.77
58.97
60.27
64.18
69.62
75.37
80.23
82.92
82.04
76.13
64.09
45.69
21.95
-4.83
-31.63
-55.50
-74.47
-88.04
-97.21
-103.90
-110.22
-117.82
-127.54
-139.39
-152.53
-165.21
-174.61
-177.11
-169.15
-148.57
-115.97
-75.15
-32.23
6.35
36.00
55.33
65.94
71.03
73.69
75.63
77.13
77.70
76.94
74.99
72.46
69.87
67.20
63.87
59.13
52.70
45.18
38.00
32.72
30.07
29.45
29.02
26.62
20.91
11.96
1.02
-10.50
-22.02
-34.14
-48.03
-64.48
-83.18
-102.73
-121.15
-136.33
-146.20
-148.56
-141.11
-122.06
-91.14
-50.41
-4.23
41.82
82.57
114.62
136.74
149.52
154.51
153.52
148.34
140.78
132.54
125.00
118.94
114.28
110.33
106.08
100.67
93.70
85.34
76.20
66.91
57.80
48.48
37.91
24.70
7.79
-12.80
-35.65
-58.25
-77.82
-92.27
-101.01
-104.85
-105.59
-105.31
-105.79
-108.16
-112.70
-118.58
-123.76
-125.25
-119.85
-105.37
-81.61
-50.71
-16.56
16.56
45.33
68.13
84.99
96.86
104.71
109.09
110.09
107.73
102.28
94.36
84.70
73.89
62.27
49.87
36.72
22.99
9.11
-4.37
-17.04
-28.77
-39.82
-50.56
-61.38
-72.44
-83.61
-94.65
-105.36
-115.81
-126.44
-137.99
-151.03
-165.21
-178.71
-188.15
-189.49
-179.46
-157.21
-124.93
-87.43
-50.47
-18.88
4.70
20.01
28.28
31.08
29.49
24.04
15.09
3.36
-9.85
-22.99
-34.68
-44.08
-51.06
-56.06
-59.85
-63.16
-66.49
-70.07
-73.79
-77.38
-80.70
-83.79
-86.98
-90.80
-95.75
-102.16
-110.13
-119.67
-130.57
-142.26
-153.33
-161.26
-162.58
-153.69
-132.12
-97.77
-53.41
-4.08
44.35
86.90
120.61
144.83
160.56
169.36
172.54
170.91
164.99
155.52
143.60
130.62
117.95
106.53
96.72
88.41
81.24
74.86
69.00
63.44
57.94
52.21
45.94
38.94
31.20
22.87
14.23
5.55
-3.04
-11.73
-21.08
-31.78
-44.15
-57.51
-69.82
-77.96
-78.76
-70.25
-52.58
-28.13
-0.77
25.55
47.84
64.56
75.43
80.80
81.28
77.59
70.85
62.66
55.08
50.15
49.31
52.91
60.08
69.05
77.78
84.66
88.87
90.40
89.68
87.07
82.59
76.01
67.15
56.32
44.35
32.37
21.41
11.95
3.70
-4.27
-13.27
-24.55
-38.69
-55.02
-71.30
-84.06
-89.47
-84.71
-69.05
-44.37
-14.49
16.00
43.14
64.56
79.46
88.19
91.51
90.15
84.81
76.28
65.68
54.33
43.48
34.03
26.41
20.53
16.11
12.81
10.39
8.67
7.40
6.16
4.41
1.62
-2.47
-7.75
-13.79
-20.02
-25.99
-31.58
-37.06
-43.11
-50.62
-60.31
-72.18
-85.01
-96.24
-102.45
-100.43
-88.46
-67.10
-39.23
-9.07
19.19
42.51
59.54
70.39
75.83
76.73
73.75
67.38
58.21
47.15
35.37
24.14
14.60
7.42
2.70
-0.03
-1.66
-3.14
-5.22
-8.19
-11.93
-16.08
-20.37
-24.74
-29.36
-34.53
-40.44
-47.13
-54.66
-63.07
-72.30
-81.78
-90.08
-94.93
-93.82
-84.89
-67.93
-44.60
-17.97
8.58
32.32
51.81
66.68
77.08
83.14
84.78
82.00
75.34
66.04
55.98
47.15
40.98
37.98
37.54
38.17
38.14
36.07
31.44
24.70
16.90
9.16
2.10
-4.36
-10.82
-18.07
-26.65
-36.86
-48.79
-62.30
-76.84
-90.98
-102.33
-107.88
-105.01
-92.62
-71.78
-45.56
-17.94
7.45
28.29
43.79
54.17
60.04
61.80
59.74
54.18
45.82
35.75
25.28
15.60
7.50
1.29
-3.30
-6.84
-10.01
-13.39
-17.25
-21.55
-26.02
-30.32
-34.17
-37.51
-40.46
-43.37
-46.71
-51.09
-57.22
-65.64
-76.38
-88.45
-99.65
-106.88
-107.02
-98.02
-79.81
-54.45
-25.47
3.23
28.53
48.63
63.07
72.13
76.37
76.32
72.60
66.01
57.62
48.56
39.90
32.37
26.38
21.94
18.84
16.68
14.92
12.97
10.29
6.59
1.88
-3.44
-8.67
-13.03
-15.91
-17.08
-16.89
-16.20
-16.33
-18.65
-24.10
-32.55
-42.46
-51.01
-54.89
-51.35
-39.26
-19.59
4.93
30.68
54.25
73.27
86.71
94.53
97.34
95.95
91.26
84.21
75.79
66.97
58.49
50.82
44.12
38.37
33.47
29.32
25.86
23.00
20.52
18.10
15.36
11.90
7.45
1.96
-4.46
-11.49
-18.78
-26.03
-33.23
-40.76
-49.22
-59.02
-69.80
-80.11
-87.56
-89.55
-84.22
-71.17
-51.53
-27.54
-1.86
23.04
45.07
62.63
74.67
80.85
81.64
78.25
72.21
64.89
57.14
49.25
41.36
33.64
26.53
20.48
15.68
11.87
8.40
4.50
-0.31
-6.05
-12.26
-18.20
-23.23
-27.12
-30.16
-33.07
-36.81
-42.19
-49.61
-58.80
-68.58
-76.95
-81.41
-79.64
-70.33
-53.67
-31.42
-6.40
18.42
40.69
58.99
72.82
82.13
87.10
88.03
85.38
79.84
72.24
63.42
54.11
45.00
36.80
30.19
25.72
23.57
23.53
25.09
27.55
30.27
32.65
34.10
34.10
32.27
28.59
23.54
18.01
13.05
9.34
6.98
5.36
3.35
-0.13
-5.49
-11.96
-17.48
-19.15
-14.17
-0.87
20.70
48.76
80.53
113.10
144.06
171.50
193.58
208.22
213.13
206.61
188.34
159.94
124.74
86.88
50.21
17.34
-10.64
-33.92
-53.32
-69.78
-84.01
-96.47
-107.49
-117.34
-126.15
-133.84
-140.07
-144.31
-146.11
-145.33
-142.27
-137.67
-132.41
-127.37
-123.32
-121.02
-121.20
-124.42
-130.62
-138.76
-146.64
-151.25
-149.61
-139.70
-121.23
-95.67
-65.83
-34.97
-6.00
19.13
39.53
55.29
67.07
75.81
82.37
87.38
91.13
93.70
95.05
95.25
94.62
93.65
92.85
92.45
92.34
92.16
91.57
90.46
88.86
86.79
84.06
80.19
74.56
66.50
55.21
39.60
18.31
-9.57
-43.29
-79.34
-111.44
-132.07
-135.14
-118.56
-85.25
-42.12
2.54
41.86
71.84
91.35
100.87
101.27
93.32
78.13
57.81
35.60
15.27
-0.02
-8.76
-11.45
-10.28
-8.22
-8.09
-11.79
-19.92
-31.61
-44.65
-55.94
-62.38
-61.95
-54.51
-42.11
-28.31
-16.94
-10.96
-11.54
-18.01
-28.09
-38.45
-45.21
-44.69
-34.23
-13.15
16.70
51.18
84.93
112.96
132.14
141.67
142.81
137.78
128.72
116.96
102.88
86.19
66.38
43.28
17.34
-10.01
-36.56
-59.69
-77.09
-87.56
-91.59
-91.40
-90.24
-91.33
-96.62
-106.09
-117.81
-128.67
-135.63
-136.86
-132.29
-123.63
-113.72
-105.75
-102.50
-105.51
-114.39
-126.50
-137.13
-140.68
-132.37
-110.03
-74.94
-31.61
13.80
55.32
88.68
111.94
125.02
129.01
125.48
116.20
103.15
88.46
74.19
61.88
52.24
45.14
39.83
35.41
31.29
27.26
23.50
20.24
17.50
14.98
12.12
8.40
3.50
-2.55
-9.49
-16.97
-24.80
-33.10
-42.34
-53.24
-66.31
-81.29
-96.59
-109.19
-115.30
-111.55
-96.44
-71.15
-39.40
-6.23
23.60
46.98
62.89
71.99
75.64
75.11
71.15
64.21
54.80
43.81
32.56
22.54
15.01
10.66
9.36
10.32
12.31
14.07
14.70
13.88
11.79
8.90
5.68
2.33
-1.22
-5.28
-10.28
-16.69
-24.98
-35.60
-48.60
-63.14
-77.16
-87.39
-90.16
-82.74
-64.46
-37.29
-5.30
26.64
54.42
75.62
89.61
96.88
98.24
94.29
85.48
72.54
56.88
40.54
25.87
14.83
8.46
6.69
8.42
12.04
16.01
19.29
21.52
23.09
24.80
27.59
32.24
39.08
47.78
57.34
66.25
72.98
76.83
78.45
79.94
84.17
93.79
110.02
132.14
157.53
182.40
202.79
215.42
218.40
211.51
196.08
174.69
150.54
126.58
104.94
86.43
70.68
56.63
43.13
29.40
15.20
0.85
-12.91
-24.99
-34.10
-39.01
-39.01
-34.41
-26.90
-19.52
-16.07
-20.03
-33.37
-55.55
-83.05
-109.84
-128.62
-132.67
-118.07
-85.17
-39.00
12.13
59.27
95.63
118.49
129.21
131.68
130.00
126.57
121.50
113.24
99.87
80.34
54.91
25.10
-7.02
-39.47
-70.82
-100.31
-127.70
-152.84
-175.46
-195.21
-211.99
-226.23
-238.83
-250.61
-261.90
-272.54
-282.36
-291.82
-301.82
-312.66
-322.80
-328.17
-323.12
-302.60
-264.42
-210.06
-143.67
-69.94
7.34
85.10
159.43
224.26
271.65
294.29
288.67
257.14
207.48
150.07
94.33
46.20
7.70
-21.92
-44.32
-60.80
-72.09
-78.72
-81.41
-81.06
-78.43
-73.96
-67.86
-60.46
-52.67
-46.24
-43.52
-47.00
-58.46
-78.06
-103.46
-129.48
-148.75
-153.37
-137.47
-99.56
-43.69
21.35
84.69
136.76
171.94
189.45
192.07
183.97
168.56
147.72
122.22
92.94
61.73
31.56
5.65
-13.62
-25.69
-31.96
-35.17
-38.33
-43.75
-52.29
-63.43
-75.73
-87.47
-97.43
-105.26
-111.58
-117.78
-125.60
-136.69
-151.76
-169.92
-188.20
-201.78
-204.99
-192.93
-163.12
-116.59
-57.93
5.72
66.47
117.46
154.24
175.12
180.79
173.43
155.90
131.12
102.00
71.40
42.23
17.09
-2.24
-15.29
-23.08
-27.66
-31.22
-35.21
-39.91
-44.59
-48.12
-49.90
-50.37
-51.12
-54.49
-62.91
-77.97
-99.52
-124.98
-149.41
-166.31
-169.27
-153.88
-119.32
-68.83
-8.90
52.52
108.20
153.22
185.62
205.82
215.49
216.48
210.20
197.77
180.52
160.42
140.15
122.66
110.32
104.20
103.78
107.27
112.43
117.43
121.40
124.56
127.72
131.53
136.06
140.63
144.08
145.34
143.61
138.02
127.37
110.03
84.75
51.89
14.58
-21.35
-48.65
-61.12
-55.72
-33.39
1.78
44.36
89.32
132.58
170.79
200.86
220.10
227.11
222.83
210.76
195.86
182.68
173.55
168.06
163.73
157.63
147.94
134.55
118.39
100.42
80.72
58.27
31.56
-0.51
-37.84
-78.90
-121.42
-163.13
-202.68
-240.02
-276.13
-312.56
-350.99
-393.06
-439.93
-491.50
-545.35
-596.07
-635.88
-656.76
-653.30
-624.90
-576.13
-514.80
-448.87
-383.77
-321.65
-262.56
-206.58
-155.17
-111.00
-76.34
-51.28
-33.21
-17.83
-1.18
18.62
40.71
62.24
79.98
91.90
97.82
99.03
97.35
94.12
89.74
83.68
75.02
62.91
47.06
27.90
6.35
-16.54
-40.18
-64.50
-89.55
-114.60
-137.42
-154.26
-160.99
-154.61
-134.67
-103.45
-64.74
-22.08
22.53
68.51
115.14
159.97
198.11
223.38
230.69
218.34
188.99
148.70
104.65
62.74
26.20
-4.48
-30.50
-53.52
-74.87
-95.34
-115.33
-135.00
-154.20
-172.35
-188.37
-200.82
-208.20
-209.46
-204.34
-193.78
-179.87
-165.62
-154.19
-147.80
-146.74
-148.98
-150.62
-147.28
-135.67
-114.74
-85.81
-51.78
-15.91
19.41
53.01
84.82
115.24
144.69
173.52
202.31
232.32
265.40
303.43
346.98
394.17
440.08
477.45
498.78
498.94
477.29
438.23
389.65
340.40
297.64
265.42
244.80
234.95
234.18
240.40
250.82
261.67
268.64
268.28
259.67
245.31
230.46
220.65
218.96
224.29
231.74
235.04
229.55
214.39
192.53
169.02
148.37
132.73
121.53
112.58
103.76
94.16
84.27
75.27
67.93
61.87
55.40
46.09
31.63
10.70
-16.49
-48.32
-82.53
-117.06
-150.82
-184.03
-217.85
-253.87
-293.69
-338.70
-389.74
-446.34
-505.65
-561.86
-606.87
-632.46
-633.16
-608.54
-563.41
-505.91
-444.29
-384.10
-327.04
-271.86
-216.46
-160.00
-103.95
-51.76
-7.58
25.35
45.86
55.15
56.27
52.99
48.32
43.85
39.82
35.79
31.57
27.63
24.79
23.50
23.32
22.89
20.53
14.92
5.53
-7.48
-23.40
-41.23
-59.45
-75.79
-87.19
-90.16
-81.68
-60.12
-26.08
17.46
65.55
112.33
152.26
181.31
197.62
201.65
195.56
182.38
165.02
145.67
125.71
106.04
87.49
70.98
57.39
47.25
40.47
36.36
33.87
31.94
29.80
27.14
23.96
20.39
16.48
12.01
6.45
-0.93
-10.95
-24.40
-41.68
-62.32
-84.49
-104.62
-117.80
-118.91
-104.29
-73.41
-29.60
20.69
69.76
111.01
140.60
157.89
164.56
163.21
156.08
144.64
129.80
112.55
94.20
76.43
60.81
48.45
39.65
34.00
30.60
28.38
26.36
23.85
20.55
16.49
11.85
6.83
1.45
-4.46
-11.27
-19.41
-29.47
-42.14
-58.01
-77.06
-97.86
-117.06
-129.60
-130.00
-114.38
-82.32
-37.64
12.61
60.39
99.28
126.06
140.87
145.79
143.26
134.94
121.65
104.10
83.62
62.42
43.09
27.74
17.24
11.03
7.48
4.69
1.22
-3.36
-8.56
-13.36
-16.91
-19.06
-20.57
-22.84
-27.32
-35.07
-46.43
-61.07
-78.00
-95.48
-110.81
-120.39
-120.33
-107.71
-81.89
-45.26
-2.78
39.41
75.92
103.43
120.92
129.00
128.78
121.20
107.11
87.78
65.45
43.15
23.99
10.04
1.69
-2.44
-4.66
-7.15
-11.03
-16.00
-20.83
-24.17
-25.50
-25.50
-25.93
-29.02
-36.69
-49.87
-68.05
-88.99
-108.82
-122.56
-125.34
-113.83
-87.64
-49.73
-5.75
37.67
74.92
102.71
120.25
128.39
128.45
121.45
108.15
89.61
67.75
45.33
25.34
9.99
-0.04
-5.65
-8.90
-11.89
-15.98
-21.22
-26.66
-31.01
-33.48
-34.36
-35.01
-37.47
-43.82
-55.50
-72.67
-93.79
-115.40
-132.47
-139.37
-131.53
-107.17
-68.29
-20.50
28.66
72.08
105.08
126.22
136.72
138.85
134.58
124.94
110.38
91.67
70.53
49.60
31.67
18.64
10.87
7.09
5.07
2.56
-1.75
-7.92
-14.90
-21.30
-26.17
-29.56
-32.48
-36.54
-43.31
-53.89
-68.59
-86.83
-106.90
-125.76
-139.08
-141.95
-130.38
-102.88
-61.64
-12.33
37.45
80.52
112.21
131.14
138.72
137.67
130.64
119.42
105.08
88.53
70.93
53.75
38.53
26.37
17.67
12.14
8.98
7.16
5.65
3.67
0.67
-3.54
-8.89
-15.15
-22.03
-29.38
-37.19
-45.60
-54.98
-65.92
-79.14
-95.11
-113.34
-131.68
-146.02
-151.02
-141.72
-115.68
-74.38
-23.35
29.40
75.91
110.64
131.56
139.85
138.41
130.29
117.81
102.43
85.25
67.46
50.46
35.59
23.78
15.33
9.97
7.12
6.06
6.10
6.50
6.54
5.50
2.83
-1.69
-7.91
-15.35
-23.39
-31.45
-39.26
-47.07
-55.70
-66.38
-80.15
-96.93
-114.68
-129.12
-134.66
-126.21
-101.39
-61.96
-13.65
35.62
78.35
109.74
128.47
136.06
135.22
128.43
117.22
102.40
84.81
65.83
47.38
31.46
19.51
12.07
8.65
8.02
8.66
9.14
8.47
6.32
2.88
-1.31
-5.71
-10.17
-14.93
-20.62
-27.96
-37.57
-49.90
-65.13
-82.81
-101.35
-117.51
-126.70
-124.06
-106.32
-73.55
-29.79
17.99
62.11
96.70
119.18
130.20
132.24
127.98
119.12
106.37
90.13
71.32
51.68
33.47
18.78
8.83
3.60
1.98
2.20
2.42
1.33
-1.65
-6.34
-12.11
-18.26
-24.36
-30.44
-36.90
-44.29
-53.24
-64.34
-78.11
-94.64
-112.97
-130.47
-142.74
-144.52
-131.46
-102.04
-58.85
-8.13
42.12
84.64
114.97
132.16
137.94
135.21
126.71
114.30
99.21
82.49
65.37
49.18
35.14
23.95
15.79
10.42
7.31
5.90
5.50
5.33
4.54
2.34
-1.79
-7.92
-15.66
-24.35
-33.29
-42.06
-50.64
-59.59
-69.89
-82.67
-98.51
-116.60
-134.04
-145.95
-146.65
-131.69
-99.86
-54.23
-1.55
49.95
93.07
123.64
140.95
146.78
143.89
134.81
121.37
105.10
87.59
70.56
55.57
43.46
34.14
26.84
20.68
15.25
10.81
8.02
7.31
8.33
9.82
9.93
6.91
-0.06
-10.52
-22.92
-35.23
-45.83
-54.10
-60.68
-67.17
-75.65
-87.84
-104.27
-123.56
-142.13
-154.60
-155.17
-139.61
-107.17
-61.33
-9.05
41.43
83.19
112.48
129.02
134.84
132.64
124.54
111.84
95.61
77.39
59.31
43.62
31.82
24.13
19.53
16.48
13.78
11.13
9.12
8.65
10.14
13.02
15.71
16.14
12.61
4.54
-7.27
-20.86
-33.97
-44.87
-53.01
-59.11
-64.87
-72.30
-83.06
-97.83
-115.79
-134.29
-148.94
-154.53
-146.41
-122.34
-83.67
-35.33
15.48
61.52
97.51
121.17
132.94
134.78
128.99
117.48
101.89
83.89
65.38
48.34
34.26
23.76
16.56
11.87
8.89
7.24
6.89
7.98
10.28
13.03
14.96
14.69
11.29
4.62
-4.49
-14.63
-24.29
-32.46
-39.06
-44.95
-51.74
-61.18
-74.38
-90.99
-108.61
-122.86
-128.37
-120.45
-96.98
-59.57
-13.45
34.04
75.80
106.97
125.84
133.48
132.43
125.27
113.86
99.35
82.60
64.68
46.96
30.86
17.56
7.64
1.12
-2.44
-3.75
-3.72
-3.32
-3.51
-5.06
-8.39
-13.51
-20.08
-27.55
-35.45
-43.52
-51.83
-60.86
-71.41
-84.39
-100.20
-117.98
-134.97
-146.60
-147.52
-133.53
-103.38
-59.83
-9.12
40.95
83.37
113.83
131.24
137.11
134.19
125.21
112.28
96.88
80.18
63.25
47.12
32.67
20.48
10.86
3.88
-0.57
-2.77
-3.25
-2.82
-2.46
-3.19
-5.80
-10.62
-17.47
-25.75
-34.65
-43.51
-52.00
-60.44
-69.71
-81.04
-95.45
-112.86
-131.31
-146.72
-153.57
-146.65
-123.10
-83.95
-34.24
18.39
66.11
103.17
127.15
138.66
140.15
134.41
123.72
109.68
93.55
76.58
60.11
45.26
32.73
22.67
14.88
9.13
5.29
3.28
2.87
3.41
3.87
2.99
-0.23
-6.16
-14.42
-24.05
-33.89
-43.10
-51.49
-59.70
-68.97
-80.74
-95.90
-113.92
-132.24
-146.32
-150.63
-140.49
-113.91
-72.91
-23.24
27.34
71.41
104.01
123.53
131.27
130.00
122.56
110.98
96.49
79.98
62.46
45.27
29.86
17.40
8.46
2.92
0.09
-0.97
-1.24
-1.45
-2.09
-3.47
-5.74
-9.08
-13.60
-19.36
-26.31
-34.26
-43.12
-53.02
-64.45
-78.04
-93.91
-110.84
-125.77
-134.07
-130.94
-113.25
-81.17
-38.57
8.00
51.39
86.10
109.44
121.60
124.49
120.42
111.22
98.10
82.02
64.19
46.24
29.93
16.79
7.64
2.45
0.44
0.38
0.99
1.23
0.53
-1.26
-3.95
-7.29
-11.10
-15.40
-20.38
-26.25
-33.30
-41.87
-52.42
-65.32
-80.42
-96.35
-110.11
-117.37
-113.64
-96.06
-64.85
-23.75
20.98
62.54
95.68
117.92
129.51
132.33
128.54
119.73
106.82
90.57
72.18
53.43
36.43
23.03
14.19
9.75
8.54
8.87
9.06
7.96
5.14
0.83
-4.40
-10.00
-15.71
-21.73
-28.52
-36.65
-46.66
-58.96
-73.78
-90.83
-108.85
-125.04
-135.24
-134.75
-120.05
-90.46
-48.97
-1.65
44.15
82.13
108.71
123.42
128.06
125.25
117.29
105.74
91.63
75.96
59.93
44.85
31.83
21.53
14.06
9.17
6.37
5.10
4.71
4.40
3.30
0.65
-4.04
-10.76
-19.06
-28.19
-37.47
-46.48
-55.25
-64.37
-74.88
-87.89
-103.96
-122.26
-139.93
-152.19
-153.51
-139.51
-109.03
-64.98
-13.87
36.29
78.46
108.46
125.54
131.55
129.40
121.84
110.77
97.44
82.79
67.83
53.62
41.15
31.03
23.51
18.44
15.41
13.83
12.99
12.10
10.48
7.54
3.01
-3.10
-10.52
-18.88
-27.79
-36.99
-46.50
-56.68
-68.20
-81.87
-97.94
-115.33
-131.16
-140.89
-139.56
-123.59
-92.57
-49.93
-2.13
43.35
80.33
105.57
118.98
122.61
119.19
110.97
99.33
85.15
69.33
53.14
38.11
25.58
16.41
10.67
7.76
6.67
6.29
5.69
4.28
1.81
-1.65
-5.89
-10.66
-15.87
-21.57
-27.91
-35.11
-43.50
-53.53
-65.69
-80.10
-95.81
-110.29
-119.49
-118.86
-104.98
-77.26
-38.64
5.08
47.08
81.69
105.91
119.55
124.29
122.35
115.48
104.71
90.81
74.82
58.32
43.19
31.08
22.87
18.52
17.08
17.13
17.23
16.34
14.03
10.37
5.79
0.72
-4.54
-10.03
-15.97
-22.78
-31.00
-41.25
-54.14
-69.83
-87.45
-104.52
-117.05
-120.29
-110.45
-86.29
-50.07
-7.15
35.64
72.15
98.57
113.96
119.71
118.17
111.49
101.11
87.89
72.58
56.27
40.46
26.69
16.16
9.34
5.85
4.61
4.19
3.28
0.99
-2.92
-8.16
-14.21
-20.58
-27.12
-33.94
-41.42
-50.01
-60.16
-72.40
-87.11
-104.14
-122.12
-138.01
-147.27
-145.04
-127.95
-95.80
-52.16
-3.56
42.56
80.13
105.93
119.88
124.00
121.03
113.34
102.52
89.63
75.57
61.38
48.07
36.57
27.39
20.69
16.32
13.88
12.82
12.38
11.70
9.94
6.50
1.23
-5.63
-13.49
-21.79
-30.10
-38.39
-46.98
-56.57
-68.05
-82.18
-98.85
-116.46
-131.53
-139.15
-134.47
-114.56
-79.97
-35.02
13.41
58.01
93.35
116.94
129.15
132.00
127.89
118.78
106.23
91.67
76.72
63.00
51.69
43.15
36.87
31.87
27.27
22.81
18.86
16.09
14.88
14.88
14.88
13.25
8.56
0.28
-11.00
-23.76
-36.20
-46.93
-55.56
-62.77
-70.09
-79.37
-92.05
-108.48
-127.18
-144.68
-155.93
-155.64
-140.08
-108.79
-65.16
-15.62
32.30
72.34
101.02
117.88
124.53
123.27
116.13
104.60
90.08
74.14
58.64
45.23
34.83
27.38
22.10
18.01
14.58
11.86
10.29
10.20
11.30
12.57
12.56
9.98
4.27
-4.17
-14.09
-24.06
-32.93
-40.32
-46.76
-53.45
-61.91
-73.35
-88.02
-104.53
-119.66
-128.86
-127.41
-112.19
-83.04
-43.29
1.12
43.42
78.02
101.90
114.80
118.45
115.30
107.50
96.51
83.28
68.68
53.79
39.86
28.08
19.22
13.53
10.70
10.08
10.82
12.04
12.94
12.80
11.16
7.81
2.85
-3.40
-10.51
-18.12
-26.04
-34.41
-43.71
-54.66
-67.86
-83.16
-98.90
-111.76
-117.25
-111.10
-91.06
-58.15
-16.79
26.52
65.23
94.71
113.19
121.45
121.66
116.12
106.51
93.84
78.87
62.56
46.21
31.26
18.97
10.08
4.63
2.02
1.17
0.80
-0.18
-2.48
-6.26
-11.27
-17.05
-23.23
-29.69
-36.58
-44.18
-52.85
-62.98
-75.00
-89.20
-105.10
-120.90
-133.07
-137.01
-128.41
-105.13
-68.48
-23.29
23.53
65.12
96.73
116.64
125.72
126.24
120.66
110.84
98.11
83.51
68.16
53.24
39.77
28.43
19.47
12.88
8.45
5.85
4.60
3.99
3.13
1.16
-2.50
-8.01
-15.01
-22.90
-31.08
-39.22
-47.37
-56.03
-66.02
-78.27
-93.32
-110.63
-127.91
-141.07
-144.98
-135.17
-109.68
-70.34
-22.56
26.19
68.77
100.41
119.55
127.43
126.74
120.25
110.03
97.38
83.20
68.35
53.80
40.52
29.31
20.65
14.61
11.03
9.48
9.35
9.90
10.29
9.74
7.55
3.36
-2.80
-10.54
-19.21
-28.16
-37.02
-45.88
-55.45
-66.78
-80.71
-97.07
-113.91
-127.37
-132.46
-124.64
-101.71
-65.09
-19.73
27.30
69.06
100.72
120.44
129.05
128.84
122.28
111.38
97.61
82.25
66.67
52.21
39.88
30.11
22.68
17.09
12.90
10.04
8.75
9.23
11.22
13.79
15.50
14.86
10.93
3.65
-6.03
-16.61
-26.55
-34.90
-41.73
-48.13
-55.95
-67.11
-82.53
-101.24
-119.91
-133.42
-136.29
-124.70
-98.18
-60.05
-16.48
25.56
60.43
85.22
99.70
105.42
104.41
98.25
87.99
74.48
58.80
42.52
27.40
15.00
6.28
1.36
-0.34
0.12
1.51
2.71
2.94
1.81
-0.72
-4.51
-9.36
-15.11
-21.69
-29.16
-37.72
-47.88
-60.32
-75.51
-93.10
-111.28
-126.52
-134.25
-130.21
-112.18
-81.10
-41.12
1.64
41.02
72.52
94.09
105.89
109.23
105.54
95.93
81.37
63.19
43.50
24.94
10.01
0.31
-4.06
-4.49
-3.18
-2.25
-2.97
-5.41
-8.72
-11.78
-13.95
-15.35
-16.90
-19.94
-25.72
-35.19
-48.56
-65.14
-83.02
-98.98
-108.89
-108.71
-95.85
-70.35
-35.28
4.11
41.93
73.46
96.18
109.80
115.44
114.48
107.89
96.16
79.94
60.51
40.08
21.28
6.43
-3.40
-8.64
-11.03
-12.77
-15.58
-20.10
-25.73
-31.24
-35.51
-38.17
-39.88
-42.00
-46.17
-53.77
-65.55
-81.44
-100.26
-119.47
-135.17
-142.70
-137.91
-118.70
-86.14
-44.59
-0.46
39.80
71.50
92.75
104.11
107.46
104.78
97.48
86.41
72.41
56.67
40.91
27.05
16.65
10.51
8.41
9.26
11.45
13.35
13.79
12.28
9.03
4.61
-0.35
-5.53
-10.99
-17.11
-24.40
-33.38
-44.55
-58.18
-74.02
-90.82
-105.84
-115.10
-114.21
-99.94
-71.71
-32.30
12.73
56.58
93.34
119.41
134.00
138.50
135.32
126.84
114.93
100.88
85.75
70.52
56.15
43.43
32.86
24.66
18.79
15.08
13.21
12.70
12.78
12.47
10.70
6.59
-0.17
-9.27
-19.78
-30.58
-40.77
-50.07
-59.01
-68.83
-81.05
-96.71
-115.46
-134.89
-150.50
-156.59
-148.11
-122.65
-81.76
-30.93
22.04
69.44
105.83
129.07
139.97
141.03
135.01
124.14
110.11
94.45
78.69
64.37
52.52
43.42
36.54
31.00
26.11
21.79
18.47
16.68
16.48
17.14
17.20
15.06
9.61
0.75
-10.52
-22.58
-33.76
-43.16
-50.88
-58.11
-66.70
-78.54
-94.65
-114.30
-134.51
-150.21
-155.40
-145.11
-117.44
-74.78
-23.41
28.32
72.70
104.86
123.58
130.65
129.15
121.91
110.73
96.47
79.81
61.84
44.14
28.47
16.19
7.80
2.99
0.86
0.28
0.31
0.27
-0.17
-1.17
-2.78
-5.11
-8.29
-12.52
-17.97
-24.77
-33.05
-43.08
-55.18
-69.50
-85.42
-100.97
-112.62
-115.95
-107.03
-84.13
-48.89
-6.13
37.53
75.80
104.58
122.54
130.62
130.76
124.66
113.39
97.70
78.63
58.07
38.50
22.34
11.13
4.97
2.56
1.82
0.75
-1.83
-5.95
-10.75
-15.15
-18.50
-20.99
-23.56
-27.50
-33.95
-43.64
-56.79
-72.99
-90.95
-108.09
-120.52
-123.66
-113.71
-89.23
-52.30
-8.22
36.04
74.11
102.06
118.94
126.14
125.88
120.04
109.64
95.24
77.65
58.35
39.41
22.98
10.64
2.88
-0.95
-2.31
-2.96
-4.33
-7.18
-11.42
-16.44
-21.48
-26.08
-30.37
-35.04
-41.03
-49.30
-60.54
-75.10
-92.66
-111.84
-129.73
-141.95
-143.45
-130.21
-101.04
-58.53
-8.79
40.43
82.13
112.03
129.24
135.51
133.70
126.43
115.38
101.46
85.39
68.17
51.17
35.83
23.25
13.94
7.70
3.89
1.58
-0.09
-1.81
-4.02
-6.97
-10.72
-15.30
-20.71
-26.90
-33.88
-41.73
-50.67
-61.17
-73.91
-89.33
-106.92
-124.50
-137.98
-142.16
-132.33
-106.35
-65.92
-16.57
34.00
78.38
111.51
131.71
140.11
139.32
132.05
120.30
105.49
88.73
71.29
54.53
39.65
27.39
17.95
11.15
6.60
3.90
2.62
2.20
1.87
0.75
-1.96
-6.73
-13.52
-21.83
-30.87
-39.95
-48.74
-57.43
-66.83
-78.06
-92.10
-108.91
-126.74
-141.69
-148.47
-141.97
-119.30
-81.41
-33.23
17.72
63.73
99.19
121.79
132.23
132.92
126.56
115.25
100.52
83.64
66.05
49.29
34.69
23.01
14.33
8.26
4.23
1.78
0.59
0.33
0.48
0.28
-1.14
-4.44
-9.86
-17.09
-25.42
-34.03
-42.34
-50.24
-58.25
-67.48
-79.22
-94.21
-111.79
-129.24
-141.92
-144.37
-132.27
-104.35
-63.34
-15.39
31.86
71.71
100.26
116.82
123.10
121.66
114.72
103.62
89.16
72.20
54.07
36.56
21.49
10.17
3.06
-0.28
-0.93
-0.25
0.54
0.62
-0.36
-2.36
-5.11
-8.34
-11.93
-15.93
-20.55
-26.14
-33.25
-42.55
-54.65
-69.55
-85.99
-101.06
-110.50
-109.80
-95.89
-68.58
-30.98
11.24
51.70
85.19
108.95
122.66
127.63
125.55
117.72
104.99
88.17
68.57
48.18
29.40
14.32
4.11
-1.41
-3.56
-4.28
-5.32
-7.58
-10.99
-14.79
-18.14
-20.79
-23.18
-26.42
-31.80
-40.40
-52.82
-68.97
-87.80
-107.03
-123.05
-131.38
-127.85
-110.13
-78.97
-38.35
5.62
46.54
79.61
102.60
115.68
120.33
118.24
110.63
98.26
81.96
63.14
43.81
26.25
12.33
2.91
-2.42
-5.04
-6.80
-9.23
-12.98
-17.85
-22.98
-27.53
-31.21
-34.38
-38.04
-43.35
-51.36
-62.82
-77.97
-96.25
-115.98
-133.92
-145.53
-145.91
-131.51
-101.68
-59.49
-11.14
35.96
75.41
103.56
119.87
126.04
124.58
117.62
106.51
92.15
75.61
58.44
42.54
29.65
20.76
15.88
14.10
13.95
13.98
13.05
10.64
6.76
1.80
-3.82
-9.86
-16.42
-23.79
-32.33
-42.40
-54.31
-68.46
-85.04
-103.57
-122.16
-137.19
-143.83
-137.44
-115.49
-79.05
-32.85
15.93
60.05
94.24
116.38
127.16
128.88
124.09
114.71
102.07
87.20
71.29
55.78
42.03
31.05
23.19
18.18
15.34
13.84
12.85
11.62
9.53
6.11
1.05
-5.60
-13.56
-22.31
-31.31
-40.23
-49.06
-58.22
-68.55
-81.08
-96.38
-113.88
-131.21
-144.10
-147.38
-136.68
-110.33
-70.43
-22.59
25.80
67.85
99.11
118.22
126.33
125.83
119.11
107.98
93.77
77.74
61.27
45.82
32.62
22.46
15.51
11.50
9.84
9.73
10.27
10.57
9.84
7.56
3.56
-1.99
-8.71
-16.19
-24.17
-32.49
-41.21
-50.64
-61.37
-74.03
-88.85
-104.80
-119.14
-127.59
-125.49
-109.51
-79.37
-38.42
7.18
50.39
85.51
109.56
122.52
126.28
123.29
115.49
104.00
89.58
73.17
56.25
40.73
28.43
20.45
16.84
16.56
17.91
19.15
19.01
17.00
13.39
8.82
3.86
-1.22
-6.64
-12.87
-20.41
-29.65
-40.90
-54.35
-69.92
-86.78
-102.79
-114.36
-117.13
-107.37
-83.65
-47.86
-5.04
38.16
75.50
102.93
119.19
125.36
123.64
116.27
104.92
90.78
74.91
58.53
43.03
29.69
19.42
12.52
8.70
7.21
6.99
6.98
6.22
3.99
-0.04
-5.80
-12.94
-20.88
-29.09
-37.26
-45.41
-54.00
-63.83
-75.91
-91.04
-109.03
-128.08
-144.39
-152.78
-148.12
-127.39
-91.16
-43.93
7.09
54.34
92.10
117.73
131.48
135.33
131.65
122.44
109.34
93.96
78.11
63.60
51.70
42.82
36.43
31.55
27.44
23.91
21.33
20.18
20.46
21.38
21.49
19.20
13.45
4.16
-7.69
-20.52
-32.72
-43.31
-52.26
-60.46
-69.51
-81.11
-96.38
-114.98
-134.54
-150.58
-157.43
-150.00
-125.83
-86.41
-37.16
14.24
60.30
95.93
119.42
131.94
136.00
133.91
127.14
116.42
102.56
86.95
71.64
58.65
49.34
43.76
40.82
38.89
36.52
33.17
29.30
26.03
24.40
24.68
26.01
26.60
24.37
17.88
6.91
-7.32
-22.61
-36.71
-48.10
-56.53
-62.98
-69.17
-76.99
-87.93
-102.68
-120.70
-139.84
-156.21
-164.69
-160.33
-140.08
-104.32
-57.25
-5.76
42.69
82.40
110.62
127.51
134.85
134.74
128.66
117.58
102.57
85.32
68.12
53.30
42.44
35.80
32.43
30.68
29.03
26.74
24.07
21.92
21.17
22.02
23.64
24.37
22.30
16.13
5.74
-7.67
-22.04
-35.25
-45.95
-54.01
-60.48
-67.06
-75.56
-87.24
-102.48
-120.42
-138.69
-153.50
-160.23
-154.59
-134.19
-99.65
-54.94
-6.28
39.61
77.42
104.35
120.05
125.84
123.60
115.16
102.14
86.19
69.14
52.85
38.81
27.75
19.64
13.82
9.64
6.74
5.23
5.41
7.36
10.49
13.60
15.12
13.72
8.82
0.89
-8.85
-18.80
-27.68
-34.95
-41.02
-47.18
-55.08
-66.21
-80.90
-97.69
-113.08
-122.16
-120.05
-103.69
-73.32
-32.64
12.15
54.37
88.78
112.76
126.19
130.61
128.03
120.14
108.20
93.22
76.37
59.01
42.62
28.50
17.48
9.92
5.58
3.79
3.59
3.91
3.73
2.36
-0.53
-4.92
-10.56
-17.11
-24.28
-31.95
-40.12
-49.06
-59.34
-71.66
-86.46
-103.24
-119.92
-132.71
-136.86
-128.20
-104.90
-68.54
-23.95
22.19
63.40
95.14
115.58
125.22
125.88
119.71
108.60
94.12
77.70
60.73
44.51
30.01
17.77
7.95
0.44
-4.80
-7.83
-8.74
-7.98
-6.37
-5.13
-5.52
-8.41
-14.03
-21.87
-30.95
-40.24
-49.07
-57.42
-66.03
-76.15
-89.10
-105.54
-124.51
-143.01
-156.11
-158.20
-144.92
-114.97
-71.11
-19.60
31.67
75.62
107.81
127.09
134.93
134.01
127.00
115.89
102.03
86.55
70.61
55.44
42.01
30.91
22.20
15.69
11.08
8.18
6.78
6.48
6.56
5.98
3.76
-0.74
-7.57
-16.16
-25.61
-35.00
-43.87
-52.33
-61.22
-71.80
-85.25
-101.78
-119.82
-135.73
-144.40
-140.76
-121.76
-87.82
-43.09
5.74
51.52
88.75
114.68
129.22
133.95
130.95
122.09
108.97
93.17
76.41
60.37
46.32
34.78
25.54
18.06
11.97
7.33
4.53
3.87
5.04
6.98
8.05
6.68
1.92
-6.18
-16.63
-27.96
-38.82
-48.44
-56.90
-65.06
-74.36
-86.30
-101.72
-119.99
-138.42
-152.41
-156.49
-146.16
-119.74
-79.40
-30.79
18.67
62.09
94.96
115.78
125.51
126.32
120.46
109.75
95.58
79.28
62.25
45.93
31.46
19.59
10.58
4.37
0.75
-0.61
-0.16
1.43
3.20
4.10
3.23
0.06
-5.41
-12.71
-21.05
-29.67
-38.01
-46.08
-54.47
-64.32
-76.85
-92.57
-110.37
-127.08
-137.83
-137.42
-122.33
-92.31
-50.93
-4.62
39.42
75.43
100.41
114.32
118.94
116.60
109.10
97.48
82.48
65.11
47.03
30.39
17.24
8.89
5.42
5.71
7.90
10.09
11.00
10.28
8.33
5.83
3.32
0.73
-2.49
-7.21
-14.28
-24.34
-37.69
-54.10
-72.55
-90.86
-105.58
-112.54
-107.98
-90.03
-59.68
-20.89
20.54
58.74
89.35
110.38
121.90
125.15
121.49
111.94
97.38
78.98
58.57
38.57
21.40
8.76
1.11
-2.48
-3.81
-4.90
-7.17
-11.06
-16.06
-21.19
-25.68
-29.36
-32.88
-37.40
-44.24
-54.49
-68.64
-86.34
-105.98
-124.51
-137.58
-140.47
-129.46
-103.50
-65.00
-19.44
26.23
65.74
95.17
113.54
122.07
122.90
117.85
108.06
94.28
77.47
59.24
41.74
27.03
16.51
10.36
7.68
6.79
5.96
3.99
0.52
-4.05
-8.98
-13.64
-17.93
-22.36
-27.73
-34.96
-44.74
-57.53
-73.43
-91.93
-111.37
-128.58
-139.02
-137.90
-121.85
-90.57
-47.56
0.75
46.89
84.70
110.93
125.38
130.04
127.57
120.25
109.54
96.42
81.82
66.91
53.00
41.24
32.32
26.33
22.89
21.27
20.58
19.94
18.54
15.72
11.13
4.79
-2.99
-11.68
-20.78
-29.99
-39.31
-49.13
-60.15
-73.21
-88.86
-106.60
-124.29
-137.97
-142.60
-133.72
-109.35
-71.19
-24.53
23.36
65.59
97.58
117.95
127.85
129.64
125.46
116.76
104.52
89.90
74.64
60.86
50.38
44.00
41.21
40.44
39.84
38.14
35.13
31.59
28.67
27.10
26.55
25.64
22.48
15.50
4.27
-10.26
-26.05
-40.83
-52.93
-61.98
-68.85
-75.24
-83.13
-94.06
-108.71
-126.53
-145.36
-161.45
-169.87
-165.78
-146.03
-110.72
-63.64
-11.51
38.08
78.89
107.56
123.79
129.41
126.96
118.70
106.33
91.34
75.40
60.36
47.88
38.89
33.26
30.01
27.90
26.08
24.39
23.30
23.37
24.62
26.23
26.69
24.35
18.22
8.44
-3.73
-16.35
-27.73
-36.97
-44.34
-51.17
-59.28
-70.35
-85.09
-102.59
-119.95
-132.64
-135.58
-124.82
-99.17
-61.08
-16.09
28.77
67.22
95.42
112.51
119.93
120.11
115.26
106.77
95.41
81.89
67.25
52.98
40.71
31.70
26.47
24.63
25.11
26.47
27.32
26.72
24.30
20.26
15.05
9.12
2.66
-4.49
-12.64
-22.07
-32.97
-45.46
-59.68
-75.52
-92.15
-107.51
-118.08
-119.70
-108.91
-84.58
-48.84
-6.76
35.12
70.84
96.66
111.54
116.69
114.35
106.79
95.66
82.17
67.29
52.09
37.74
25.34
15.67
9.06
5.37
4.05
4.26
4.99
5.20
3.97
0.67
-4.84
-12.30
-21.05
-30.36
-39.61
-48.49
-57.14
-66.21
-76.75
-89.86
-106.06
-124.39
-141.89
-153.72
-154.42
-139.84
-109.04
-65.12
-14.55
34.86
76.39
106.15
123.47
130.01
128.39
121.08
109.94
96.45
82.02
68.01
55.62
45.46
37.53
31.37
26.50
22.77
20.36
19.52
20.11
21.30
21.66
19.58
13.94
4.63
-7.40
-20.49
-32.95
-43.70
-52.67
-60.77
-69.57
-80.70
-95.22
-112.86
-131.45
-146.86
-153.82
-147.46
-125.22
-88.19
-41.19
8.58
53.87
89.49
113.34
126.11
129.99
127.26
119.60
108.15
94.09
79.01
64.85
53.25
44.93
39.46
35.59
31.98
27.95
23.77
20.42
18.82
19.16
20.45
20.82
18.29
11.59
0.80
-12.70
-26.78
-39.49
-49.68
-57.48
-64.05
-71.24
-80.92
-94.43
-111.80
-131.33
-149.34
-160.64
-159.94
-143.63
-111.43
-66.86
-16.41
32.50
73.75
103.85
122.27
130.35
130.17
123.57
112.06
97.13
80.54
64.31
50.22
39.30
31.51
26.00
21.70
17.95
14.76
12.66
12.15
13.13
14.66
15.12
12.93
7.16
-1.99
-13.28
-25.00
-35.59
-44.25
-51.22
-57.62
-65.13
-75.38
-89.30
-106.33
-123.92
-137.63
-142.16
-133.00
-108.31
-70.00
-23.45
24.18
66.20
98.28
119.12
129.82
132.53
129.21
121.07
108.82
93.23
75.63
57.84
41.81
29.08
20.33
15.37
13.25
12.69
12.43
11.59
9.74
6.80
2.91
-1.83
-7.41
-13.99
-21.76
-30.90
-41.58
-54.13
-68.87
-85.79
-103.81
-120.24
-130.95
-131.21
-117.48
-89.06
-48.82
-2.69
42.19
79.62
106.03
120.83
125.63
122.90
114.84
102.89
87.99
71.00
53.08
35.70
20.36
8.25
-0.10
-4.86
-6.81
-7.16
-7.14
-7.81
-9.74
-13.03
-17.43
-22.60
-28.33
-34.69
-41.89
-50.28
-60.24
-72.27
-86.89
-104.16
-122.99
-140.44
-151.73
-151.45
-135.43
-102.80
-56.94
-4.76
45.48
86.81
115.49
131.31
136.55
134.23
126.74
115.36
100.73
83.55
65.09
47.19
31.68
19.80
11.83
7.13
4.50
2.65
0.62
-2.03
-5.29
-8.92
-12.73
-16.73
-21.23
-26.71
-33.62
-42.42
-53.46
-67.13
-83.55
-102.06
-120.59
-135.38
-141.51
-134.35
-111.52
-74.23
-27.44
21.57
65.47
99.07
120.34
130.08
130.64
124.57
113.79
99.58
83.01
65.33
48.04
32.64
20.24
11.36
5.86
3.11
2.22
2.22
2.25
1.59
-0.22
-3.38
-7.94
-13.78
-20.71
-28.56
-37.22
-46.75
-57.51
-70.15
-85.29
-102.87
-121.31
-137.10
-145.24
-140.65
-120.23
-84.46
-37.79
12.53
58.73
94.89
118.33
129.51
130.80
125.00
114.32
100.20
83.70
65.97
48.46
32.69
19.83
10.47
4.50
1.35
0.13
-0.05
-0.06
-0.59
-2.13
-4.95
-9.11
-14.54
-21.03
-28.36
-36.30
-44.75
-53.90
-64.30
-76.80
-91.92
-109.10
-125.87
-137.93
-140.05
-128.02
-100.50
-60.05
-12.66
34.19
73.87
102.45
119.11
125.35
123.56
115.85
103.68
88.10
70.33
51.99
34.97
20.93
10.89
5.01
2.64
2.60
3.60
4.46
4.37
2.92
0.09
-3.85
-8.59
-13.83
-19.50
-25.71
-32.76
-41.13
-51.49
-64.43
-79.95
-96.79
-111.99
-121.17
-119.68
-104.32
-74.94
-34.93
9.61
51.82
86.20
109.90
122.87
126.77
123.70
115.31
102.62
86.52
68.32
49.95
33.68
21.42
14.13
11.48
12.00
13.61
14.40
13.22
9.94
5.26
0.15
-4.71
-9.25
-14.08
-20.13
-28.39
-39.54
-53.89
-71.13
-89.95
-107.74
-120.58
-123.95
-114.17
-90.02
-53.65
-10.34
33.14
70.61
98.21
114.94
121.97
121.38
114.95
103.76
88.60
70.53
51.27
33.02
17.90
7.29
1.36
-0.89
-1.23
-1.50
-3.07
-6.43
-11.30
-16.92
-22.60
-28.04
-33.47
-39.49
-46.82
-56.12
-67.93
-82.52
-99.52
-117.43
-133.11
-142.08
-139.55
-122.17
-89.72
-45.72
3.36
50.11
88.41
114.97
129.51
133.91
130.75
122.31
110.26
95.87
80.34
64.98
51.04
39.42
30.52
24.29
20.32
18.07
16.90
16.15
15.07
12.95
9.26
3.78
-3.32
-11.60
-20.51
-29.62
-38.78
-48.22
-58.58
-70.80
-85.72
-103.39
-122.26
-138.74
-147.72
-143.99
-124.34
-89.16
-42.98
6.88
52.59
88.26
111.34
122.49
124.29
119.66
110.90
99.40
86.06
71.82
57.73
44.83
33.87
25.13
18.47
13.61
10.16
7.83
6.18
4.70
2.72
-0.35
-4.90
-10.98
-18.32
-26.48
-35.01
-43.63
-52.42
-61.93
-73.06
-86.66
-102.75
-119.71
-133.91
-140.25
-133.86
-112.11
-76.11
-30.83
16.35
58.15
89.58
109.03
117.76
118.46
113.71
105.16
93.57
79.44
63.63
47.55
32.92
21.24
13.34
9.19
7.94
8.23
8.70
8.36
6.80
4.13
0.76
-2.98
-7.02
-11.61
-17.10
-23.82
-31.97
-41.78
-53.53
-67.33
-82.60
-97.43
-108.44
-111.36
-102.52
-80.46
-46.97
-6.80
33.79
69.03
95.36
111.82
119.46
120.02
114.99
105.21
91.33
74.47
56.50
39.84
26.68
18.31
14.61
14.17
14.92
14.89
12.97
9.06
3.98
-1.15
-5.58
-9.28
-13.02
-18.03
-25.59
-36.61
-51.39
-69.31
-88.60
-106.20
-118.02
-119.83
-108.64
-84.05
-48.80
-8.19
31.56
65.21
89.84
105.03
111.96
112.22
106.88
96.50
81.64
63.54
44.33
26.63
12.69
3.66
-0.86
-2.44
-3.20
-4.91
-8.40
-13.39
-18.93
-24.03
-28.28
-32.03
-36.34
-42.49
-51.57
-64.22
-80.41
-99.18
-118.38
-134.47
-142.90
-139.22
-120.75
-87.90
-44.67
2.39
46.18
81.27
105.17
118.24
122.62
120.67
114.02
103.53
89.77
73.64
56.70
40.88
27.91
18.77
13.46
11.11
10.30
9.63
8.04
5.12
0.95
-4.04
-9.41
-15.01
-20.93
-27.50
-35.15
-44.29
-55.43
-69.03
-85.17
-102.92
-119.79
-131.70
-133.82
-122.29
-95.98
-57.42
-12.44
31.68
68.55
94.42
108.78
113.54
111.47
104.89
95.15
82.83
68.48
53.15
38.37
25.81
16.71
11.40
9.29
9.11
9.39
8.88
6.93
3.46
-1.18
-6.49
-12.11
-17.99
-24.37
-31.70
-40.55
-51.57
-65.40
-82.47
-102.36
-123.21
-141.36
-151.87
-149.84
-132.28
-99.62
-56.05
-8.29
36.43
72.56
97.41
111.11
115.45
112.69
104.61
92.52
77.49
60.86
44.25
29.39
17.67
9.72
5.39
3.77
3.56
3.47
2.55
0.42
-2.74
-6.51
-10.50
-14.67
-19.29
-24.85
-31.78
-40.37
-50.84
-63.35
-77.91
-93.84
-109.12
-120.27
-122.86
-113.04
-89.22
-53.18
-9.90
33.96
72.21
100.91
118.91
127.33
128.14
123.05
113.11
99.02
81.80
63.21
45.54
31.07
21.30
16.43
15.38
16.27
17.07
16.40
13.79
9.71
5.07
0.67
-3.26
-7.21
-12.12
-19.08
-28.96
-42.24
-58.80
-77.59
-96.29
-111.25
-117.99
-112.58
-93.06
-60.68
-19.85
23.12
62.01
92.52
113.09
124.38
128.07
125.66
117.94
105.31
88.50
69.13
49.70
32.95
20.96
14.49
12.74
13.74
15.15
15.09
12.72
8.37
3.11
-1.88
-5.87
-8.90
-11.66
-15.24
-20.86
-29.68
-42.44
-58.93
-77.34
-93.81
-102.91
-99.11
-78.92
-42.65
5.13
56.87
104.53
142.12
166.97
179.59
182.19
177.03
165.42
147.75
124.16
95.33
62.90
29.29
-2.71
-30.54
-52.32
-67.15
-75.11
-77.21
-74.96
-70.15
-64.46
-59.37
-56.02
-55.23
-57.52
-63.05
-71.75
-83.45
-98.10
-115.57
-135.13
-154.73
-170.53
-177.38
-170.31
-146.58
-107.17
-57.11
-4.03
44.30
82.27
107.65
121.17
125.19
121.99
113.08
99.24
81.31
60.92
40.58
23.13
10.74
4.16
2.40
3.21
3.98
2.59
-2.01
-9.75
-19.83
-31.26
-43.19
-55.11
-66.62
-77.45
-87.41
-96.61
-105.65
-115.30
-125.89
-136.42
-144.12
-144.88
-134.67
-111.47
-76.51
-34.21
9.32
48.55
80.28
104.02
120.98
132.49
138.80
139.01
132.03
117.80
97.90
75.28
53.37
34.90
21.23
12.23
6.82
3.60
1.51
0.12
-0.51
-0.24
0.65
1.07
-0.73
-6.72
-18.43
-36.33
-59.56
-85.91
-112.01
-133.61
-146.06
-145.22
-128.56
-96.37
-52.19
-2.28
46.00
86.21
114.47
130.01
134.48
130.69
121.33
108.39
93.31
77.39
62.05
48.64
37.92
29.64
22.54
14.97
5.73
-5.08
-15.95
-24.46
-28.40
-26.81
-20.62
-12.42
-5.74
-4.09
-10.09
-24.87
-47.59
-75.11
-102.15
-122.17
-128.96
-118.68
-91.31
-50.84
-4.11
41.49
79.99
108.02
124.56
130.08
125.60
112.42
92.32
67.90
42.59
19.99
2.91
-7.42
-11.68
-12.07
-11.47
-12.46
-16.43
-23.31
-31.76
-39.85
-45.92
-49.25
-50.42
-51.08
-53.45
-59.49
-70.17
-84.85
-100.93
-114.28
-120.12
-114.49
-95.69
-65.02
-26.46
14.53
52.69
84.30
107.59
122.24
128.58
126.90
117.52
101.29
80.12
57.00
35.33
17.87
5.85
-1.33
-5.53
-8.82
-12.50
-16.64
-20.39
-22.72
-23.21
-22.52
-22.17
-24.11
-30.06
-41.00
-56.80
-75.93
-95.32
-110.68
-117.27
-111.26
-91.09
-58.37
-17.52
25.36
64.37
95.26
116.01
126.46
127.47
120.18
105.83
86.03
63.11
39.97
19.50
3.73
-6.80
-12.96
-16.52
-19.13
-21.65
-23.95
-25.39
-25.47
-24.47
-23.68
-25.06
-30.68
-41.99
-59.11
-80.32
-101.90
-118.65
-125.06
-116.97
-93.14
-55.92
-10.77
35.46
76.41
107.77
127.68
136.22
134.52
124.05
106.51
83.99
59.13
34.79
13.42
-3.56
-16.09
-25.13
-31.95
-37.50
-42.01
-45.11
-46.37
-45.89
-44.54
-44.02
-46.48
-53.92
-67.36
-86.20
-107.67
-126.95
-138.16
-136.00
-117.60
-83.76
-38.95
10.02
56.10
93.97
120.97
136.84
142.74
140.10
130.14
114.09
93.65
71.19
49.47
30.88
16.66
6.58
-0.75
-7.07
-13.54
-20.31
-26.56
-31.18
-33.64
-34.53
-35.60
-39.37
-48.21
-63.40
-84.33
-108.10
-129.75
-143.28
-143.23
-126.48
-93.39
-48.01
3.11
52.82
95.27
127.07
147.31
156.71
156.61
148.38
133.34
113.27
90.54
68.03
48.32
33.01
22.23
14.76
8.83
3.01
-3.10
-8.80
-12.85
-14.39
-13.66
-12.26
-12.82
-18.25
-30.67
-50.59
-76.21
-103.37
-126.14
-138.14
-134.39
-112.97
-75.89
-28.64
21.53
67.69
105.03
131.50
147.21
153.32
150.90
140.72
123.63
101.25
76.23
51.89
31.27
16.17
6.61
1.07
-2.71
-6.66
-11.65
-17.36
-22.72
-26.75
-29.25
-31.08
-33.95
-39.86
-50.47
-66.59
-87.69
-111.60
-134.44
-151.01
-155.97
-145.36
-118.19
-77.12
-27.89
22.36
67.18
102.37
126.33
139.38
142.57
136.89
123.26
103.01
78.40
52.57
28.93
10.08
-2.91
-10.72
-15.24
-18.61
-22.29
-26.65
-31.03
-34.33
-35.85
-35.79
-35.33
-36.36
-40.85
-50.23
-64.85
-83.59
-103.68
-120.90
-130.32
-127.62
-110.36
-79.12
-37.52
8.74
53.46
91.59
120.03
137.68
144.77
142.12
130.86
112.53
89.44
64.58
41.12
21.67
7.51
-1.64
-7.21
-10.94
-14.13
-17.12
-19.47
-20.53
-20.10
-18.85
-18.31
-20.45
-27.17
-39.57
-57.34
-78.36
-98.58
-112.78
-115.79
-104.21
-77.73
-39.50
4.73
48.38
85.88
113.83
131.10
138.17
136.18
126.45
110.41
89.91
67.32
45.23
25.84
10.39
-1.11
-9.58
-16.26
-21.96
-26.77
-30.20
-31.81
-31.71
-31.01
-31.70
-36.07
-46.03
-62.15
-83.01
-104.92
-122.44
-129.67
-122.08
-98.14
-60.14
-13.59
34.46
77.65
111.76
135.15
148.09
151.60
146.68
134.32
115.91
93.72
70.73
49.94
33.42
21.76
14.13
8.95
4.70
0.50
-3.80
-8.01
-12.02
-16.28
-21.78
-29.96
-42.43
-60.39
-83.99
-111.50
-138.95
-160.37
-169.31
-160.86
-133.63
-90.64
-38.55
14.42
61.06
96.92
120.71
133.26
136.18
130.71
117.71
98.24
74.34
49.11
26.06
8.01
-3.98
-10.72
-14.44
-17.56
-21.65
-26.84
-32.20
-36.43
-38.82
-39.83
-41.04
-44.67
-52.87
-66.92
-86.58
-109.64
-131.90
-147.76
-151.59
-139.38
-110.36
-67.49
-16.77
34.56
80.09
115.67
139.70
152.43
154.88
148.10
133.23
111.92
86.77
61.11
38.31
20.72
9.00
2.08
-2.17
-5.88
-10.28
-15.39
-20.35
-24.13
-26.31
-27.48
-29.15
-33.39
-42.13
-56.60
-76.56
-99.92
-122.54
-138.96
-143.68
-132.96
-106.27
-66.79
-20.43
25.97
66.73
98.52
120.37
132.77
136.50
132.10
120.01
101.30
78.15
53.74
31.44
13.67
1.22
-6.85
-12.48
-17.62
-23.35
-29.67
-35.82
-40.97
-44.79
-47.71
-50.73
-55.02
-61.62
-70.99
-82.82
-95.60
-106.47
-111.48
-106.58
-88.93
-58.29
-17.50
28.15
72.46
110.09
137.70
154.10
159.58
155.10
141.79
121.07
95.12
66.94
40.01
17.40
0.87
-9.54
-15.29
-18.46
-20.82
-23.16
-25.28
-26.51
-26.41
-25.32
-24.40
-25.40
-30.05
-39.53
-53.96
-71.97
-90.51
-105.26
-111.44
-105.24
-85.21
-52.95
-12.88
29.05
67.01
96.74
116.08
124.73
123.52
113.82
97.33
76.17
52.92
30.42
11.21
-3.11
-12.27
-17.18
-19.36
-20.30
-20.82
-21.05
-20.73
-19.76
-18.69
-18.78
-21.81
-29.49
-42.73
-60.93
-81.55
-100.23
-111.68
-111.06
-95.72
-66.20
-26.41
17.56
59.17
93.13
116.40
128.16
129.14
120.84
105.14
84.23
60.69
37.36
16.80
0.74
-10.36
-17.21
-21.19
-23.65
-25.42
-26.70
-27.38
-27.51
-27.71
-29.25
-33.88
-43.25
-58.23
-78.12
-100.17
-119.64
-130.73
-128.22
-109.35
-75.08
-30.13
18.42
63.32
99.22
123.59
136.46
139.20
133.43
120.50
101.78
79.23
55.62
34.04
16.99
5.52
-1.07
-4.72
-7.58
-11.10
-15.51
-20.04
-23.63
-25.81
-27.11
-29.11
-33.94
-43.54
-58.89
-79.33
-102.16
-122.76
-135.43
-134.83
-117.84
-84.89
-40.23
9.23
56.02
94.35
121.29
136.73
142.21
139.53
130.04
114.69
94.79
72.55
50.92
32.84
20.23
13.20
10.18
8.70
6.49
2.45
-3.11
-8.92
-13.59
-16.50
-18.23
-20.45
-25.27
-34.59
-49.36
-69.08
-91.50
-112.61
-127.18
-129.95
-117.31
-88.80
-47.73
-0.43
45.64
84.21
111.75
127.75
133.82
132.13
124.34
111.37
93.94
73.34
51.80
32.08
16.69
7.00
2.81
2.46
3.57
3.87
2.04
-2.10
-7.73
-13.66
-19.01
-23.66
-28.27
-33.93
-41.80
-52.72
-67.04
-84.38
-103.41
-121.41
-134.33
-137.46
-126.87
-101.09
-62.16
-15.46
31.80
72.89
103.35
121.78
129.18
127.59
118.97
104.65
85.84
64.20
42.24
22.97
8.97
1.53
0.06
2.42
5.74
7.57
6.67
3.33
-1.16
-5.35
-8.48
-10.90
-13.83
-18.88
-27.30
-39.62
-55.49
-73.59
-91.61
-106.22
-113.49
-109.80
-93.04
-63.75
-25.41
16.41
55.69
87.65
109.74
121.59
124.02
118.23
105.34
86.65
64.18
40.88
20.12
4.76
-3.90
-6.54
-5.49
-3.62
-3.25
-5.27
-9.17
-13.58
-17.19
-19.54
-21.30
-24.03
-29.60
-39.57
-54.51
-73.59
-94.24
-112.23
-122.33
-119.74
-101.80
-69.31
-26.76
18.98
60.77
93.44
114.83
125.50
127.31
122.08
110.82
94.10
72.93
49.49
26.89
8.45
-3.57
-8.79
-8.71
-6.16
-4.06
-4.39
-7.62
-12.86
-18.60
-23.58
-27.43
-30.76
-34.88
-41.23
-50.95
-64.59
-81.89
-101.38
-120.13
-133.72
-137.02
-125.76
-98.33
-56.91
-7.33
42.56
85.35
116.17
133.54
138.87
135.06
125.06
111.07
94.52
76.60
58.54
41.80
27.73
17.26
10.66
7.53
6.98
7.84
8.88
9.06
7.65
4.33
-0.81
-7.41
-14.98
-23.11
-31.56
-40.28
-49.47
-59.62
-71.45
-85.69
-102.42
-120.29
-135.97
-144.45
-140.37
-120.11
-83.65
-35.20
17.77
67.01
105.96
131.40
143.51
144.61
137.54
124.63
107.60
88.09
68.07
49.86
35.45
25.78
20.40
17.77
16.17
14.47
12.62
11.36
11.50
13.20
15.47
16.48
14.22
7.47
-3.65
-17.63
-32.16
-45.05
-55.08
-62.35
-68.28
-74.96
-84.48
-98.11
-115.60
-134.63
-150.89
-158.77
-152.95
-130.27
-91.27
-40.56
14.33
65.18
105.51
132.04
144.78
145.87
138.17
124.17
105.84
85.01
63.76
44.38
28.84
18.19
12.17
9.52
8.64
8.34
8.25
8.64
9.90
11.90
13.68
13.69
10.40
3.04
-7.98
-21.05
-34.05
-45.12
-53.41
-59.37
-64.63
-71.35
-81.49
-95.82
-113.22
-130.30
-141.87
-142.28
-127.29
-95.97
-51.49
-0.52
48.83
89.49
117.35
131.77
134.72
129.17
117.71
101.99
83.01
61.86
40.19
20.15
3.93
-6.98
-12.22
-12.59
-9.79
-5.76
-2.17
-0.05
0.30
-0.85
-3.10
-6.08
-9.73
-14.23
-19.84
-26.85
-35.59
-46.42
-59.65
-75.10
-91.44
-105.75
-113.72
-110.75
-93.76
-62.76
-21.42
23.81
65.77
98.80
120.11
129.84
129.95
122.71
109.83
92.33
71.21
48.06
25.29
5.66
-8.57
-16.40
-18.48
-16.77
-13.79
-11.74
-11.78
-13.93
-17.39
-21.17
-24.67
-28.09
-32.16
-37.91
-46.24
-57.74
-72.54
-90.14
-108.87
-125.57
-135.65
-134.16
-117.43
-84.94
-40.09
10.37
58.49
97.52
123.76
136.86
138.84
132.51
120.24
103.61
83.77
62.02
40.17
20.31
4.34
-6.57
-12.24
-13.52
-11.93
-9.23
-7.00
-6.27
-7.44
-10.37
-14.64
-19.86
-25.85
-32.68
-40.50
-49.56
-60.17
-72.80
-87.87
-105.21
-123.34
-138.97
-147.20
-142.84
-122.40
-85.81
-37.18
16.25
66.29
106.26
132.63
145.22
146.23
138.73
125.44
108.35
88.96
68.65
48.98
31.55
17.68
8.03
2.48
0.31
0.44
1.74
3.20
4.01
3.54
1.34
-2.83
-8.92
-16.61
-25.34
-34.59
-44.01
-53.73
-64.35
-76.83
-91.95
-109.51
-127.61
-142.29
-148.24
-140.41
-115.99
-75.99
-25.35
28.35
77.28
115.62
140.67
152.64
153.51
145.65
131.19
111.92
89.67
66.50
44.55
25.58
10.62
-0.21
-7.34
-11.41
-12.94
-12.34
-10.06
-6.88
-3.98
-2.78
-4.50
-9.72
-18.12
-28.62
-39.70
-50.08
-59.14
-67.25
-75.66
-86.05
-99.74
-116.73
-134.94
-150.10
-156.60
-149.20
-125.05
-85.17
-34.56
19.16
68.09
106.26
130.99
142.61
143.42
136.19
123.21
106.18
86.46
65.52
45.06
26.83
12.30
2.29
-3.11
-4.49
-2.99
-0.02
2.98
4.86
4.90
2.95
-0.77
-5.77
-11.60
-18.00
-24.92
-32.51
-41.20
-51.66
-64.62
-80.38
-98.03
-114.90
-126.56
-127.86
-114.72
-85.95
-44.22
4.49
52.57
93.27
122.37
138.84
144.06
140.48
130.36
115.33
96.55
75.27
53.18
32.38
14.93
2.29
-5.09
-7.88
-7.55
-5.97
-4.76
-5.00
-6.99
-10.49
-14.96
-19.96
-25.42
-31.61
-39.03
-48.29
-60.05
-74.77
-92.41
-111.86
-130.42
-143.82
-146.97
-135.60
-108.03
-66.29
-15.97
35.43
80.67
114.81
136.03
145.27
144.82
137.16
124.16
107.12
87.26
66.10
45.55
27.58
13.75
4.70
0.14
-1.07
-0.48
0.36
0.24
-1.49
-4.94
-9.90
-15.98
-22.89
-30.49
-38.80
-47.95
-58.30
-70.39
-84.85
-101.91
-120.66
-138.50
-151.05
-153.05
-140.06
-110.35
-66.11
-13.16
40.60
87.61
122.69
143.92
152.31
150.50
141.48
127.74
111.15
93.17
75.12
58.22
43.48
31.53
22.58
16.59
13.26
12.10
12.34
12.94
12.78
10.90
6.80
0.48
-7.57
-16.66
-26.20
-35.87
-45.69
-56.11
-67.91
-81.98
-98.84
-117.79
-136.30
-149.99
-153.48
-142.24
-114.43
-72.08
-20.82
31.75
78.38
114.04
136.74
147.08
147.11
139.20
125.53
108.07
88.82
69.82
52.86
39.08
28.77
21.48
16.45
13.07
11.13
10.64
11.51
13.19
14.52
14.04
10.48
3.33
-6.98
-19.20
-31.77
-43.41
-53.52
-62.42
-71.20
-81.35
-94.17
-110.11
-128.02
-144.78
-155.66
-155.45
-140.25
-109.11
-64.87
-13.56
37.32
81.02
113.16
132.39
139.79
137.70
128.68
114.86
97.99
79.57
61.12
44.10
29.67
18.59
11.06
6.78
5.18
5.47
6.85
8.47
9.55
9.34
7.31
3.19
-2.91
-10.54
-19.01
-27.63
-36.04
-44.41
-53.58
-64.72
-78.71
-95.22
-112.00
-124.90
-128.79
-119.33
-94.83
-57.22
-11.79
34.51
75.18
105.99
125.54
134.72
135.41
129.39
117.87
101.75
82.18
60.97
40.47
23.05
10.38
2.98
0.04
-0.14
0.49
0.37
-1.24
-4.20
-7.88
-11.59
-15.11
-18.77
-23.38
-29.90
-39.16
-51.68
-67.50
-85.87
-104.82
-121.00
-130.03
-127.58
-110.92
-80.29
-39.24
6.18
49.33
84.83
109.86
124.17
129.12
126.58
118.02
104.51
87.06
67.18
46.93
28.63
14.19
4.55
-0.56
-2.42
-2.80
-3.28
-4.82
-7.65
-11.44
-15.65
-20.01
-24.58
-29.81
-36.32
-44.79
-55.81
-69.83
-86.90
-106.09
-125.07
-139.90
-145.69
-138.09
-114.97
-77.69
-31.03
18.08
62.71
97.83
121.30
133.60
136.65
132.62
123.21
109.57
92.77
74.21
55.69
39.14
26.08
17.21
12.25
10.13
9.39
8.70
7.15
4.43
0.69
-3.78
-8.74
-14.23
-20.50
-27.90
-36.76
-47.38
-60.08
-75.14
-92.49
-111.10
-128.44
-140.45
-142.45
-130.63
-103.76
-64.06
-16.89
30.80
72.55
104.07
123.85
132.68
132.59
125.82
114.26
99.48
82.96
66.18
50.58
37.26
26.80
19.29
14.47
11.93
11.24
11.84
12.98
13.68
12.89
9.75
3.92
-4.36
-14.34
-25.02
-35.54
-45.54
-55.27
-65.62
-77.82
-92.83
-110.51
-129.00
-144.47
-151.92
-146.63
-125.98
-90.74
-45.20
4.05
50.01
87.28
113.03
127.04
130.74
126.23
115.57
100.67
83.39
65.65
49.30
35.74
25.65
18.91
14.82
12.57
11.50
11.24
11.59
12.19
12.44
11.45
8.32
2.52
-5.80
-15.90
-26.59
-36.80
-45.95
-54.22
-62.56
-72.39
-85.05
-100.97
-119.00
-135.99
-147.25
-147.72
-133.75
-104.58
-63.05
-14.94
32.74
73.74
104.15
122.81
130.70
129.88
122.52
110.42
95.06
77.94
60.59
44.57
31.16
21.11
14.59
11.24
10.44
11.34
13.09
14.78
15.60
14.86
12.18
7.53
1.26
-6.07
-13.87
-21.75
-29.72
-38.25
-48.24
-60.67
-76.03
-93.51
-110.49
-122.65
-124.95
-113.42
-86.87
-47.82
-2.01
43.39
81.93
109.73
125.90
131.90
130.08
122.53
110.61
95.18
77.16
58.02
39.70
24.16
12.83
6.20
3.72
4.10
5.70
6.95
6.75
4.59
0.53
-5.00
-11.51
-18.64
-26.35
-34.83
-44.45
-55.72
-69.21
-85.34
-103.87
-123.21
-140.06
-149.68
-147.11
-129.00
-95.28
-49.69
1.09
49.47
89.24
117.08
132.66
137.78
134.93
126.32
113.51
97.72
80.20
62.46
46.09
32.38
22.09
15.27
11.45
9.80
9.37
9.15
8.28
6.04
2.08
-3.61
-10.71
-18.69
-27.11
-35.71
-44.58
-54.17
-65.24
-78.69
-95.00
-113.55
-131.99
-146.14
-150.79
-141.33
-115.64
-75.34
-25.71
25.79
71.82
107.22
129.90
140.63
141.70
135.71
124.85
110.76
94.82
78.47
63.13
49.87
39.22
31.13
25.23
21.13
18.67
17.75
18.16
19.19
19.72
18.37
14.06
6.42
-4.03
-16.04
-28.15
-39.24
-48.91
-57.73
-67.02
-78.43
-93.22
-111.33
-130.75
-147.32
-155.54
-150.26
-128.63
-91.54
-43.71
7.70
55.25
93.46
119.76
134.31
138.83
135.38
125.72
111.41
94.17
76.13
59.53
46.10
36.50
30.24
26.10
22.83
19.81
17.20
15.67
15.73
17.17
18.85
19.03
15.99
8.76
-2.39
-16.03
-30.12
-42.79
-53.06
-61.13
-68.29
-76.51
-87.66
-102.83
-121.51
-141.17
-157.37
-164.62
-157.95
-134.83
-96.37
-47.40
4.78
52.62
90.48
115.75
128.73
131.54
126.81
116.74
102.91
86.55
68.94
51.55
35.86
23.06
13.84
8.27
5.91
5.96
7.43
9.28
10.62
10.79
9.39
6.36
1.84
-3.89
-10.52
-17.79
-25.55
-33.97
-43.56
-55.11
-69.24
-85.73
-102.76
-116.74
-122.91
-116.85
-96.30
-62.30
-19.29
26.15
67.37
99.53
120.59
131.00
132.70
127.77
117.77
103.66
86.23
66.72
46.96
29.12
15.19
6.30
2.42
2.31
4.06
5.67
5.71
3.62
-0.28
-5.29
-10.76
-16.45
-22.63
-29.84
-38.75
-49.91
-63.75
-80.35
-98.99
-117.71
-132.99
-140.19
-134.81
-114.29
-79.35
-34.30
14.08
58.60
93.82
117.19
129.04
131.44
126.82
117.03
103.23
86.28
67.36
48.14
30.61
16.53
6.89
1.64
-0.18
-0.11
0.23
-0.35
-2.47
-6.15
-11.03
-16.68
-22.83
-29.46
-36.78
-45.19
-55.17
-67.26
-81.90
-99.11
-117.83
-135.50
-147.93
-150.21
-138.23
-110.46
-69.02
-19.43
30.95
75.20
108.64
129.67
139.24
139.64
133.28
122.08
107.48
90.81
73.54
57.20
43.05
31.84
23.70
18.34
15.23
13.83
13.50
13.52
13.04
11.21
7.45
1.53
-6.30
-15.48
-25.37
-35.47
-45.68
-56.38
-68.44
-82.92
-100.42
-120.22
-139.60
-153.93
-157.66
-146.26
-118.17
-75.79
-25.05
26.41
71.66
106.21
128.59
139.66
141.35
135.65
124.27
108.83
91.20
73.52
57.78
45.23
36.06
29.59
24.77
20.83
17.63
15.56
15.08
16.05
17.55
17.88
15.31
8.69
-1.92
-15.34
-29.65
-43.04
-54.42
-63.80
-72.20
-81.35
-93.06
-108.48
-127.37
-147.45
-164.41
-172.69
-167.12
-144.82
-106.62
-57.18
-3.69
46.28
86.86
115.12
130.97
136.15
133.02
123.73
110.06
93.61
76.06
59.10
44.16
32.14
23.27
17.22
13.45
11.49
10.97
11.57
12.78
13.84
13.77
11.64
6.89
-0.42
-9.63
-19.66
-29.44
-38.33
-46.46
-54.77
-64.80
-77.96
-94.67
-113.38
-130.39
-140.36
-138.07
-120.27
-87.35
-43.50
4.50
49.43
85.88
111.35
126.12
132.00
130.98
124.46
113.22
98.04
80.23
61.79
44.97
31.68
22.91
18.51
17.43
18.14
19.10
19.23
17.97
15.27
11.39
6.62
1.06
-5.46
-13.32
-22.94
-34.76
-49.11
-66.05
-85.00
-104.24
-120.63
-129.88
-127.71
-111.31
-80.77
-39.57
6.27
49.94
85.85
110.97
124.92
129.19
125.92
116.92
103.44
86.49
67.26
47.43
28.97
13.73
2.91
-3.28
-5.59
-5.50
-4.66
-4.50
-5.82
-8.79
-13.09
-18.21
-23.80
-29.78
-36.43
-44.16
-53.49
-65.02
-79.27
-96.48
-115.94
-135.40
-150.79
-156.94
-149.06
-124.74
-85.30
-35.81
16.27
63.39
100.10
124.06
135.81
137.54
131.87
120.99
106.67
90.45
73.85
58.33
44.94
34.15
25.86
19.70
15.37
12.78
11.94
12.58
13.93
14.73
13.54
9.33
1.83
-8.31
-19.84
-31.40
-42.07
-51.70
-61.02
-71.36
-84.22
-100.50
-119.72
-139.33
-154.83
-160.64
-151.95
-126.59
-86.24
-36.25
15.91
63.06
100.10
124.98
138.20
141.63
137.38
127.25
112.84
95.90
78.48
62.59
49.69
40.26
33.78
29.24
25.75
22.98
21.25
21.03
22.37
24.50
25.81
24.45
19.08
9.39
-3.67
-18.27
-32.41
-44.63
-54.46
-62.58
-70.58
-80.43
-93.82
-111.22
-131.23
-150.21
-162.81
-163.41
-148.06
-116.15
-71.03
-19.23
31.63
75.01
107.06
126.88
135.70
135.59
128.56
116.28
100.35
82.61
65.12
49.73
37.57
28.80
22.74
18.45
15.25
13.04
12.11
12.73
14.58
16.61
17.18
14.67
8.20
-2.02
-14.69
-27.97
-40.15
-50.34
-58.67
-66.23
-74.69
-85.75
-100.40
-118.17
-136.59
-151.24
-156.68
-148.16
-123.58
-84.60
-36.54
13.24
57.64
91.82
113.98
124.94
126.89
122.14
112.50
99.24
83.52
66.73
50.42
36.09
24.81
17.08
12.82
11.47
12.33
14.51
17.15
19.35
20.31
19.35
16.13
10.67
3.38
-5.04
-13.85
-22.51
-30.94
-39.68
-49.77
-62.39
-77.96
-95.32
-111.23
-120.87
-119.17
-102.84
-71.88
-30.00
16.35
60.07
95.51
119.79
132.80
136.26
132.42
123.13
109.63
92.84
73.91
54.39
36.19
21.14
10.48
4.58
2.78
3.71
5.68
7.12
7.02
4.95
1.00
-4.47
-11.08
-18.56
-26.76
-35.68
-45.41
-56.33
-69.06
-84.24
-102.03
-121.23
-138.77
-149.91
-149.48
-133.74
-102.16
-58.08
-7.96
40.63
81.27
110.26
126.88
132.63
129.88
120.93
107.58
91.31
73.52
55.75
39.51
26.01
15.91
9.30
5.80
4.69
5.10
6.10
6.73
6.14
3.67
-0.98
-7.69
-15.95
-25.07
-34.41
-43.60
-52.77
-62.53
-73.93
-88.07
-105.41
-124.92
-143.50
-156.17
-157.32
-142.71
-111.38
-66.46
-14.47
36.68
80.16
111.86
130.88
138.63
137.49
129.79
117.41
101.91
84.90
68.02
52.71
39.89
29.86
22.46
17.41
14.53
13.73
14.78
16.96
19.06
19.56
17.18
11.30
2.28
-8.81
-20.57
-31.87
-42.18
-51.77
-61.64
-73.16
-87.58
-105.28
-124.96
-143.24
-154.99
-154.76
-138.67
-106.18
-60.80
-9.18
40.97
83.16
113.74
132.03
139.44
138.15
130.18
117.17
100.70
82.66
65.14
50.03
38.47
30.51
25.36
21.93
19.41
17.56
16.61
16.80
17.79
18.54
17.51
13.25
5.08
-6.56
-20.22
-33.95
-46.13
-56.05
-64.17
-71.96
-81.35
-94.07
-110.81
-130.50
-150.01
-164.44
-168.24
-157.03
-129.24
-87.14
-36.40
15.52
61.59
97.06
120.12
131.52
133.30
127.72
116.62
101.58
84.22
66.41
50.02
36.52
26.54
19.80
15.46
12.69
10.99
10.33
10.76
11.99
13.19
13.08
10.45
4.68
-3.95
-14.35
-25.08
-34.95
-43.49
-51.11
-59.06
-68.91
-82.05
-98.72
-117.36
-134.32
-144.46
-142.55
-125.23
-92.58
-48.43
0.57
47.17
85.58
112.90
129.10
135.97
135.75
130.12
120.06
106.23
89.60
71.72
54.58
40.11
29.60
23.37
20.82
20.60
21.21
21.33
20.17
17.51
13.50
8.45
2.56
-4.15
-11.82
-20.62
-30.74
-42.47
-56.23
-72.34
-90.52
-109.12
-124.80
-132.97
-129.13
-110.69
-78.31
-36.16
9.32
51.37
84.94
107.64
119.66
122.65
118.59
109.02
95.08
77.84
58.74
39.65
22.52
8.98
-0.10
-4.77
-5.83
-4.58
-2.42
-0.65
-0.21
-1.61
-4.98
-10.14
-16.71
-24.34
-32.81
-42.14
-52.55
-64.53
-78.72
-95.59
-114.80
-134.59
-151.32
-159.97
-155.57
-135.03
-98.85
-51.40
0.17
48.19
86.78
113.18
127.69
132.51
130.21
122.79
111.49
97.21
81.02
64.39
48.95
36.04
26.46
20.26
17.01
15.98
16.30
17.09
17.45
16.50
13.59
8.43
1.21
-7.53
-17.07
-26.78
-36.40
-46.19
-56.95
-69.80
-85.64
-104.30
-123.75
-139.89
-147.34
-141.13
-118.71
-81.35
-34.13
15.59
60.54
95.56
118.63
130.43
133.14
129.12
120.20
107.63
92.48
75.96
59.49
44.41
31.80
22.21
15.69
11.93
10.28
9.99
10.16
9.83
8.11
4.38
-1.56
-9.46
-18.68
-28.45
-38.14
-47.54
-57.00
-67.40
-79.91
-95.37
-113.44
-131.98
-146.88
-152.92
-145.49
-122.34
-84.89
-38.18
10.63
54.47
88.38
110.39
121.21
122.99
118.06
108.21
94.74
78.85
61.97
45.76
31.81
21.19
14.27
10.72
9.82
10.62
12.21
13.73
14.36
13.43
10.49
5.41
-1.55
-9.83
-18.81
-27.93
-37.02
-46.38
-56.83
-69.44
-84.92
-102.74
-120.48
-133.82
-137.53
-127.27
-101.47
-62.38
-15.64
31.47
72.38
103.03
122.40
131.81
133.40
129.07
119.90
106.54
89.88
71.45
53.42
38.03
26.98
20.82
18.88
19.60
21.00
21.42
19.90
16.33
11.17
5.11
-1.43
-8.40
-16.08
-24.87
-35.09
-47.01
-60.96
-77.17
-95.24
-113.54
-128.78
-136.36
-131.78
-112.30
-78.59
-34.84
12.26
55.67
90.05
112.93
124.58
126.86
122.08
112.06
98.11
81.34
63.09
45.00
28.82
15.99
7.24
2.54
1.15
1.84
3.27
4.21
3.75
1.46
-2.69
-8.46
-15.44
-23.29
-31.77
-40.79
-50.47
-61.18
-73.59
-88.52
-106.35
-126.12
-144.96
-158.11
-160.08
-146.62
-116.60
-72.92
-21.88
28.78
72.29
104.57
124.66
133.91
134.67
129.13
118.98
105.56
90.31
74.77
60.45
48.35
38.84
31.67
26.43
22.80
20.73
20.21
20.93
22.02
22.15
19.92
14.44
5.70
-5.40
-17.43
-29.03
-39.45
-48.79
-58.05
-68.75
-82.39
-99.68
-119.66
-139.27
-153.58
-157.01
-145.14
-116.67
-74.26
-23.94
26.68
70.82
104.26
125.83
136.62
138.68
133.95
123.91
109.93
93.65
77.10
62.28
50.54
42.17
36.43
32.12
28.29
24.69
21.84
20.45
20.84
22.37
23.47
22.18
16.96
7.43
-5.45
-19.74
-33.30
-44.65
-53.51
-60.81
-68.41
-78.38
-92.30
-110.43
-131.07
-150.45
-163.17
-163.69
-148.16
-116.06
-70.83
-18.93
32.07
75.69
108.12
128.43
137.76
138.07
131.24
118.84
102.41
83.87
65.42
49.18
36.55
27.88
22.49
19.16
16.83
15.08
14.09
14.32
15.84
17.95
19.16
17.68
12.20
2.52
-10.31
-24.36
-37.60
-48.73
-57.59
-65.19
-73.25
-83.68
-97.76
-115.47
-134.92
-152.22
-162.13
-159.43
-140.82
-106.45
-60.27
-9.11
39.53
79.59
107.94
124.37
130.61
128.99
121.45
109.40
93.98
76.48
58.48
41.69
27.54
16.99
10.36
7.42
7.49
9.59
12.56
15.19
16.50
15.87
13.08
8.36
2.14
-5.05
-12.77
-20.75
-29.07
-38.27
-49.27
-63.06
-79.94
-98.60
-115.71
-126.26
-125.05
-108.68
-77.25
-34.71
12.22
56.27
91.92
116.58
130.51
135.49
133.50
125.76
112.84
95.33
74.53
52.68
32.53
16.51
5.89
0.51
-1.13
-1.12
-1.36
-2.92
-5.91
-9.77
-13.73
-17.47
-21.23
-25.82
-32.22
-41.34
-53.85
-69.92
-89.02
-109.41
-127.87
-139.86
-140.61
-126.70
-97.66
-56.60
-9.54
36.38
75.18
103.44
120.62
128.17
128.10
121.96
110.65
94.84
75.64
54.98
35.30
18.99
7.59
1.31
-0.89
-0.82
-0.39
-0.93
-2.99
-6.40
-10.65
-15.34
-20.41
-26.17
-33.14
-41.84
-52.77
-66.35
-82.88
-102.08
-122.50
-141.01
-152.95
-153.17
-137.91
-106.53
-62.24
-11.48
38.06
79.78
109.84
127.55
134.48
133.12
125.76
114.05
99.24
82.60
65.62
49.82
36.47
26.20
19.08
14.67
12.35
11.45
11.25
10.98
9.77
6.91
1.95
-5.06
-13.62
-23.01
-32.63
-42.22
-52.03
-62.81
-75.56
-91.11
-109.45
-128.92
-145.93
-155.39
-152.08
-132.64
-97.15
-49.70
2.75
52.46
93.19
121.70
137.69
142.87
139.61
130.06
115.93
98.82
80.53
62.91
47.58
35.42
26.42
19.95
15.23
11.86
9.89
9.53
10.66
12.47
13.44
11.85
6.48
-2.83
-15.09
-28.54
-41.34
-52.33
-61.34
-69.31
-77.92
-89.05
-103.98
-122.55
-142.47
-159.34
-167.43
-161.47
-138.65
-99.97
-50.38
2.65
51.45
90.30
116.58
130.55
134.24
130.15
120.42
106.74
90.62
73.71
57.71
44.09
33.69
26.60
22.33
20.22
19.67
20.31
21.78
23.53
24.66
24.11
20.98
14.93
6.31
-3.89
-14.44
-24.33
-33.12
-41.18
-49.64
-60.03
-73.63
-90.50
-108.69
-124.09
-131.18
-124.90
-102.67
-65.73
-19.17
29.69
73.56
107.37
129.10
139.48
140.67
134.99
124.17
109.34
91.53
72.09
52.75
35.42
21.70
12.51
7.85
6.87
8.17
10.12
11.31
10.80
8.20
3.62
-2.58
-9.96
-18.22
-27.24
-37.01
-47.68
-59.60
-73.33
-89.43
-107.85
-127.14
-144.00
-153.57
-150.74
-132.14
-97.76
-51.51
-0.25
48.33
87.97
115.36
130.20
134.32
130.33
120.62
107.05
91.09
74.16
57.69
43.00
31.05
22.28
16.66
13.83
13.25
14.24
15.95
17.31
17.15
14.46
8.68
-0.13
-11.27
-23.64
-36.11
-47.85
-58.66
-69.08
-80.31
-93.86
-110.76
-130.57
-150.63
-166.13
-171.12
-160.57
-132.35
-88.54
-35.05
20.11
69.28
107.23
131.91
144.09
146.05
140.35
129.18
114.32
97.48
80.44
64.89
52.02
42.25
35.22
30.16
26.45
23.87
22.58
22.72
23.95
25.19
24.82
21.28
13.69
2.30
-11.56
-26.02
-39.37
-50.68
-60.14
-69.06
-79.39
-93.06
-110.95
-132.10
-153.11
-168.66
-172.74
-160.71
-131.22
-87.01
-34.37
18.87
65.62
101.37
124.67
136.43
138.67
133.39
122.25
106.74
88.66
70.22
53.69
40.78
32.11
27.08
24.31
22.38
20.48
18.66
17.55
17.70
18.92
20.04
19.27
14.89
6.10
-6.53
-21.31
-36.03
-48.90
-59.17
-67.35
-74.90
-83.75
-95.65
-111.45
-130.57
-150.52
-167.01
-174.70
-168.67
-146.19
-108.00
-58.50
-4.61
46.21
88.06
117.80
135.10
141.54
139.44
131.01
118.05
102.15
84.88
67.88
52.70
40.45
31.61
26.07
23.33
22.77
23.77
25.72
27.93
29.51
29.51
27.11
21.92
14.13
4.51
-5.94
-16.32
-26.18
-35.78
-46.10
-58.50
-74.10
-92.84
-112.66
-129.29
-137.13
-131.04
-108.43
-70.67
-22.99
27.00
71.79
106.14
128.05
138.37
139.51
133.93
123.39
108.93
91.35
71.77
51.82
33.44
18.39
7.79
1.83
-0.22
0.25
1.65
2.56
2.06
-0.24
-4.26
-9.74
-16.40
-24.09
-32.78
-42.50
-53.41
-65.90
-80.60
-98.03
-117.92
-138.42
-155.71
-164.41
-159.24
-137.03
-98.36
-47.91
6.84
57.85
98.92
127.01
142.18
146.45
142.49
132.62
118.67
102.15
84.61
67.64
52.53
40.08
30.48
23.49
18.74
15.96
14.89
15.11
15.78
15.70
13.56
8.39
-0.04
-11.13
-23.66
-36.28
-48.01
-58.57
-68.57
-79.39
-92.65
-109.45
-129.41
-149.91
-166.16
-172.19
-162.77
-135.54
-92.21
-38.43
17.88
68.94
109.24
136.44
150.95
154.75
150.13
139.11
123.47
105.12
86.23
68.96
54.95
44.84
38.18
33.83
30.64
28.02
26.11
25.44
26.33
28.32
30.03
29.48
24.83
15.21
1.17
-15.44
-32.13
-46.72
-58.16
-66.90
-74.67
-83.93
-96.94
-114.80
-136.58
-158.92
-176.43
-182.88
-173.18
-145.20
-100.94
-46.17
11.13
63.21
104.51
132.61
147.89
152.31
148.17
137.37
121.52
102.23
81.59
61.99
45.63
33.83
26.61
22.86
20.96
19.59
18.25
17.30
17.44
18.98
21.31
22.83
21.52
15.75
5.07
-9.54
-25.95
-41.71
-54.90
-64.87
-72.31
-78.94
-86.96
-98.29
-113.94
-133.32
-153.89
-171.20
-179.70
-174.25
-151.83
-112.99
-62.06
-6.11
47.06
91.03
122.19
139.91
145.75
142.23
131.91
116.87
98.90
79.64
60.73
43.67
29.57
19.03
12.09
8.47
7.68
9.16
12.13
15.63
18.50
19.58
18.08
13.73
6.87
-1.74
-11.18
-20.72
-30.02
-39.31
-49.43
-61.54
-76.53
-94.14
-112.21
-126.50
-131.58
-122.63
-97.45
-57.83
-9.30
40.49
84.25
117.08
137.36
146.22
146.16
139.67
128.51
113.73
96.23
77.17
58.10
40.76
26.61
16.53
10.60
8.22
8.23
9.22
9.85
9.07
6.26
1.30
-5.58
-13.93
-23.20
-33.01
-43.11
-53.61
-65.03
-78.27
-94.29
-113.32
-133.97
-152.68
-164.08
-162.44
-143.88
-108.17
-59.35
-4.75
47.33
90.10
119.90
136.39
141.54
138.19
128.86
115.39
99.10
81.16
62.90
45.70
30.78
19.02
10.82
6.12
4.48
5.09
6.88
8.58
8.94
6.97
2.16
-5.37
-15.01
-25.86
-37.09
-48.22
-59.28
-70.93
-84.27
-100.37
-119.45
-140.00
-158.38
-169.24
-166.95
-147.72
-111.31
-61.63
-5.82
47.91
92.69
124.56
142.84
149.21
146.38
136.97
123.12
106.60
89.05
72.08
57.04
44.71
35.22
28.18
23.11
19.69
17.91
17.72
18.74
19.96
19.93
17.17
10.75
0.72
-11.91
-25.53
-38.61
-50.18
-60.28
-69.97
-80.99
-95.10
-113.09
-133.85
-153.87
-167.67
-169.21
-154.01
-121.06
-73.62
-18.51
36.00
82.66
117.12
138.28
147.56
147.40
140.07
127.27
110.43
91.25
71.86
54.45
40.72
31.22
25.32
21.64
18.84
16.26
14.09
13.04
13.65
15.68
17.84
18.15
14.69
6.46
-6.19
-21.60
-37.43
-51.58
-62.94
-71.69
-79.16
-87.35
-98.20
-112.99
-131.62
-152.06
-170.40
-181.31
-179.50
-161.34
-126.49
-78.38
-23.58
30.14
75.91
109.46
129.58
137.58
136.04
127.64
114.59
98.57
81.00
63.32
46.94
33.10
22.58
15.61
11.91
10.93
12.00
14.37
17.19
19.45
20.07
18.13
13.16
5.31
-4.64
-15.56
-26.32
-36.27
-45.46
-54.78
-65.69
-79.60
-96.97
-116.35
-134.05
-144.68
-142.76
-124.85
-91.21
-46.11
3.40
49.79
87.39
113.65
128.94
135.31
134.90
129.08
118.36
103.16
84.45
64.18
44.95
29.29
18.85
13.87
13.23
14.90
16.77
17.28
15.90
12.94
9.13
5.02
0.63
-4.54
-11.24
-20.13
-31.59
-45.79
-62.57
-81.25
-100.03
-115.66
-123.70
-119.77
-101.17
-68.37
-25.39
21.35
64.98
100.29
124.77
138.53
143.13
140.35
131.45
117.23
98.60
77.09
55.01
34.98
19.23
8.86
3.54
1.67
1.06
-0.23
-3.29
-8.11
-13.93
-19.82
-25.32
-30.68
-36.73
-44.53
-54.94
-68.50
-85.30
-104.92
-126.01
-145.90
-160.52
-165.03
-155.23
-129.33
-89.02
-39.41
12.34
59.18
96.01
120.65
133.52
136.59
132.23
122.47
108.97
93.21
76.64
60.73
46.68
35.20
26.51
20.46
16.78
15.08
14.87
15.41
15.61
14.23
10.26
3.25
-6.44
-17.79
-29.55
-40.74
-51.08
-61.15
-72.24
-85.87
-103.07
-123.44
-144.59
-162.03
-170.11
-163.74
-140.28
-100.91
-50.60
3.31
53.34
93.94
122.57
139.46
146.47
145.80
139.20
128.06
113.71
97.86
82.46
69.25
59.19
52.14
47.07
42.76
38.47
34.32
31.10
29.69
30.24
31.82
32.48
30.05
22.98
11.07
-4.40
-21.14
-36.81
-49.81
-59.90
-68.13
-76.45
-86.97
-101.32
-119.88
-141.16
-161.65
-176.13
-178.88
-165.51
-134.72
-89.21
-35.16
19.59
67.92
105.30
130.38
144.26
149.11
146.85
138.76
125.78
109.19
90.94
73.49
59.09
49.05
43.31
40.63
39.28
37.82
35.63
33.02
30.81
29.71
29.69
29.79
28.35
23.66
14.70
1.65
-14.04
-30.17
-44.63
-56.11
-64.59
-71.22
-77.78
-86.11
-97.63
-112.91
-131.36
-150.90
-167.79
-177.15
-174.03
-155.15
-120.31
-73.00
-19.58
32.57
77.16
110.45
131.54
141.51
142.31
135.82
123.67
107.54
89.39
71.46
55.77
43.62
35.14
29.57
25.74
22.80
20.63
19.65
20.37
22.71
25.62
27.31
25.90
20.24
10.46
-2.03
-15.12
-26.85
-36.16
-43.20
-49.22
-56.07
-65.70
-79.35
-96.93
-116.40
-133.71
-143.49
-140.59
-121.91
-87.84
-42.52
7.33
54.43
93.12
120.43
136.13
141.70
139.19
130.41
116.87
99.98
81.32
62.61
45.42
30.90
19.63
11.65
6.78
4.67
4.91
6.84
9.48
11.55
11.70
8.91
2.73
-6.47
-17.66
-29.51
-40.84
-51.02
-60.25
-69.59
-80.62
-94.78
-112.38
-131.73
-148.86
-158.22
-154.34
-133.95
-97.54
-49.54
2.94
52.32
92.76
121.35
137.92
144.03
141.74
132.89
119.07
101.91
83.33
65.35
49.68
37.20
27.89
21.03
15.83
11.91
9.40
8.67
9.76
11.99
13.82
13.36
9.05
0.40
-11.77
-25.70
-39.36
-51.30
-61.15
-69.73
-78.72
-90.05
-105.12
-123.86
-144.19
-161.85
-171.19
-166.77
-145.31
-107.21
-56.86
-1.43
51.24
94.97
126.45
145.31
153.07
151.85
143.56
129.77
112.09
92.50
73.26
56.39
43.07
33.40
26.52
21.32
17.03
13.65
11.73
11.84
13.90
16.79
18.59
17.19
11.19
0.53
-13.42
-28.40
-42.10
-53.07
-61.22
-67.81
-74.99
-85.04
-99.55
-118.51
-139.85
-159.27
-171.05
-169.49
-150.89
-115.15
-66.21
-11.04
42.40
87.52
120.56
140.78
149.56
149.03
141.15
127.57
109.84
89.90
70.02
52.38
38.42
28.47
21.81
17.17
13.51
10.50
8.56
8.47
10.61
14.43
18.25
19.76
16.96
8.96
-3.55
-18.50
-33.33
-46.01
-55.77
-63.32
-70.43
-79.29
-91.68
-108.30
-128.16
-148.34
-164.22
-170.36
-162.06
-137.08
-96.81
-46.24
7.42
56.86
96.64
124.24
139.78
144.92
141.70
131.91
117.10
98.96
79.49
60.84
44.71
31.97
22.51
15.61
10.60
7.28
5.93
6.90
10.06
14.33
17.92
18.85
15.76
8.44
-2.08
-14.03
-25.58
-35.56
-43.75
-50.99
-58.84
-69.10
-83.13
-100.91
-120.40
-137.31
-145.98
-141.08
-119.65
-82.59
-34.71
16.64
63.92
101.56
127.06
140.71
144.45
140.57
130.89
116.76
99.37
80.11
60.55
42.28
26.59
14.25
5.60
0.58
-1.15
-0.24
2.31
5.19
7.00
6.56
3.20
-3.07
-11.70
-21.78
-32.44
-43.09
-53.66
-64.68
-77.10
-91.97
-109.70
-129.18
-147.28
-159.05
-159.03
-143.15
-110.59
-64.56
-11.54
40.65
85.22
118.07
138.16
146.68
145.80
137.72
124.27
107.17
88.32
69.78
53.40
40.28
30.59
23.65
18.53
14.57
11.74
10.42
10.96
13.10
15.63
16.69
14.37
7.56
-3.53
-17.45
-32.03
-45.26
-56.12
-64.89
-73.02
-82.63
-95.73
-113.24
-134.23
-155.52
-172.00
-177.76
-167.91
-140.43
-97.22
-43.89
11.89
62.55
102.65
129.76
144.20
147.92
143.33
132.56
117.47
99.77
81.34
64.02
49.28
37.83
29.56
23.82
19.89
17.44
16.52
17.22
19.27
21.62
22.67
20.67
14.58
4.45
-8.49
-22.33
-35.22
-46.12
-55.12
-63.46
-73.07
-85.86
-102.84
-123.28
-144.16
-160.48
-166.36
-156.87
-129.99
-87.71
-35.72
18.19
66.52
104.08
128.82
141.39
143.91
138.72
127.79
112.73
95.14
76.82
59.61
44.91
33.38
24.86
18.77
14.56
12.02
11.19
12.00
13.92
15.73
15.88
12.94
6.27
-3.76
-15.87
-28.45
-40.17
-50.44
-59.61
-68.83
-79.66
-93.53
-110.95
-130.72
-149.45
-161.98
-162.65
-147.29
-115.13
-69.50
-17.10
34.11
77.34
108.69
127.50
135.39
134.85
128.04
116.46
101.22
83.57
65.11
47.65
32.77
21.45
13.99
10.02
8.86
9.66
11.49
13.33
14.19
13.18
9.78
3.94
-3.87
-12.91
-22.41
-31.91
-41.39
-51.41
-62.95
-77.07
-94.15
-113.10
-130.80
-142.41
-142.60
-127.54
-96.68
-53.41
-4.22
43.33
83.02
111.54
128.63
136.00
135.92
130.03
119.20
104.00
85.45
65.34
46.11
30.13
19.01
13.05
11.25
11.74
12.50
12.07
9.93
6.42
2.32
-1.81
-5.92
-10.65
-16.92
-25.66
-37.48
-52.64
-70.96
-91.59
-112.51
-130.23
-140.14
-137.61
-119.80
-87.04
-43.32
4.70
49.76
86.17
111.11
124.68
128.80
125.87
117.73
105.49
89.98
72.21
53.79
36.67
22.68
13.00
7.75
6.05
6.28
6.74
6.06
3.62
-0.52
-5.85
-11.89
-18.38
-25.46
-33.50
-42.89
-54.03
-67.32
-83.17
-101.63
-121.71
-140.78
-154.47
-157.59
-145.84
-117.62
-75.13
-24.01
28.35
75.01
111.32
135.53
148.31
151.57
147.39
137.62
123.88
107.86
91.33
75.91
62.66
51.88
43.24
36.13
30.27
25.73
22.82
21.61
21.52
21.20
18.94
13.23
3.43
-9.99
-25.58
-41.46
-56.07
-68.74
-79.90
-91.01
-104.05
-120.60
-140.79
-162.56
-181.46
-191.57
-187.17
-164.83
-124.95
-72.01
-13.42
42.65
89.60
123.77
144.61
153.75
153.64
146.58
134.33
118.43
100.62
82.90
67.38
55.58
48.00
43.96
42.03
40.75
39.28
37.60
36.32
36.09
36.88
37.76
37.00
32.76
23.85
10.29
-6.60
-24.66
-41.65
-56.00
-67.31
-76.35
-84.76
-94.58
-107.65
-124.91
-145.72
-167.39
-185.24
-193.50
-186.95
-162.67
-121.44
-67.84
-9.18
46.68
93.32
127.16
147.63
156.30
155.66
148.06
135.33
118.98
100.59
82.07
65.49
52.58
44.22
40.04
38.74
38.65
38.39
37.35
35.75
34.25
33.33
32.88
31.92
28.96
22.56
12.00
-2.27
-18.68
-35.08
-49.58
-61.20
-70.13
-77.60
-85.34
-95.03
-107.96
-124.49
-143.77
-163.29
-178.94
-185.63
-178.57
-154.92
-115.09
-63.13
-5.81
49.24
95.52
129.10
148.92
156.20
153.38
143.07
127.63
109.12
89.50
70.61
54.07
40.99
31.68
25.82
22.70
21.59
22.03
23.71
26.22
28.83
30.37
29.57
25.46
17.73
7.03
-5.40
-18.02
-29.64
-39.78
-48.85
-58.16
-69.45
-84.19
-102.65
-123.04
-141.23
-151.49
-148.16
-127.79
-90.83
-41.83
11.80
62.18
103.25
131.94
148.17
153.60
150.40
140.41
125.16
106.20
85.47
65.07
46.90
32.14
21.11
13.51
8.86
6.82
7.20
9.68
13.49
17.22
19.07
17.44
11.52
1.62
-11.00
-24.55
-37.49
-49.00
-59.23
-69.28
-80.89
-95.75
-114.63
-136.48
-157.88
-173.30
-176.51
-162.61
-130.10
-81.84
-24.49
33.53
84.52
123.49
148.74
161.17
163.01
156.49
143.49
125.67
104.95
83.69
64.29
48.63
37.43
30.21
25.63
22.38
19.70
17.68
16.90
17.80
20.03
22.26
22.54
19.02
10.73
-1.94
-17.41
-33.44
-48.02
-60.04
-69.69
-78.38
-88.24
-101.44
-119.28
-141.31
-164.76
-184.68
-194.94
-189.90
-166.35
-124.82
-69.81
-8.61
50.65
101.19
138.84
162.41
173.02
172.93
164.62
150.30
131.91
111.39
90.77
72.06
56.83
45.82
38.73
34.52
31.88
29.91
28.33
27.51
27.88
29.43
31.26
31.71
28.88
21.40
9.08
-6.92
-24.46
-41.21
-55.44
-66.65
-75.68
-84.39
-95.05
-109.62
-128.85
-151.59
-174.45
-192.20
-198.82
-189.27
-161.04
-115.39
-57.25
5.98
66.23
116.83
153.75
175.96
184.70
182.48
171.99
155.57
135.18
112.70
90.13
69.56
52.73
40.53
32.81
28.53
26.32
25.10
24.43
24.41
25.34
27.11
28.93
29.39
26.86
20.21
9.25
-5.00
-20.67
-35.66
-48.42
-58.41
-66.25
-73.46
-82.02
-93.86
-110.23
-131.03
-154.21
-175.58
-189.46
-189.95
-172.68
-136.43
-83.87
-21.06
43.96
103.21
150.42
182.01
197.27
197.69
186.13
166.00
140.65
113.03
85.57
60.11
37.91
19.64
5.48
-4.76
-11.41
-14.81
-15.34
-13.61
-10.58
-7.66
-6.46
-8.44
-14.48
-24.51
-37.57
-52.03
-66.16
-78.66
-89.30
-99.02
-109.80
-123.81
-142.21
-163.96
-185.37
-200.59
-203.19
-188.29
-154.37
-104.09
-43.71
18.58
74.81
119.10
148.57
163.25
165.19
157.25
142.25
122.40
99.50
75.14
51.09
29.34
11.73
-0.57
-7.45
-9.96
-9.90
-9.25
-9.58
-11.59
-15.11
-19.46
-23.91
-28.07
-32.24
-37.26
-44.35
-54.78
-69.55
-88.76
-111.10
-133.45
-150.97
-158.02
-149.63
-123.38
-80.52
-26.16
32.06
85.92
128.90
157.49
171.29
172.23
163.15
146.79
125.34
100.53
74.09
48.01
24.44
5.31
-8.26
-16.27
-19.76
-20.45
-20.17
-20.36
-21.73
-24.28
-27.58
-31.18
-34.88
-38.94
-44.00
-50.93
-60.64
-73.89
-90.94
-111.17
-132.48
-151.20
-162.37
-160.89
-143.03
-107.95
-58.42
-0.47
58.08
109.63
148.62
172.55
181.86
179.03
167.35
149.94
129.27
107.24
85.35
64.98
47.32
33.22
23.06
16.71
13.68
13.23
14.42
16.06
16.82
15.44
11.00
3.30
-7.21
-19.54
-32.58
-45.56
-58.35
-71.60
-86.50
-104.30
-125.29
-148.01
-168.83
-182.41
-183.08
-166.59
-131.79
-81.33
-21.24
40.62
96.55
140.76
170.28
184.96
186.62
178.12
162.39
142.07
119.53
96.90
76.14
58.78
45.63
36.51
30.51
26.45
23.50
21.48
20.61
21.11
22.60
23.89
23.26
19.06
10.33
-2.79
-19.04
-36.52
-53.30
-68.03
-80.34
-91.01
-101.73
-114.61
-131.32
-152.10
-174.87
-195.25
-207.41
-205.69
-186.42
-149.06
-96.64
-34.92
28.98
88.05
136.69
171.37
190.87
196.01
189.15
173.42
152.14
128.26
104.32
82.35
63.97
50.20
41.26
36.48
34.52
33.93
33.65
33.31
33.01
32.94
32.85
31.84
28.57
21.79
10.84
-3.96
-21.33
-39.48
-56.62
-71.52
-83.86
-94.34
-104.52
-116.42
-131.75
-151.00
-172.52
-192.44
-205.26
-205.36
-188.76
-154.42
-104.72
-44.93
18.10
77.42
127.23
163.68
185.14
192.05
186.43
171.22
149.64
124.77
99.28
75.38
54.85
38.85
27.78
21.20
18.02
17.02
17.29
18.43
20.36
23.04
25.90
27.77
27.14
22.64
13.62
0.57
-15.06
-31.22
-46.02
-58.35
-68.25
-76.96
-86.47
-98.86
-115.29
-135.09
-155.32
-171.12
-176.76
-167.35
-140.39
-96.82
-41.00
20.33
79.62
130.20
167.56
189.72
197.10
191.80
176.79
155.24
130.13
104.00
78.99
56.73
38.29
24.09
14.00
7.52
4.12
3.34
4.82
7.95
11.73
14.67
15.09
11.64
3.81
-7.79
-21.63
-35.75
-48.54
-59.28
-68.60
-78.28
-90.66
-107.50
-128.72
-151.72
-171.36
-181.19
-175.31
-150.43
-107.20
-50.29
12.72
73.43
124.59
161.62
182.95
189.58
184.03
169.39
148.70
124.55
99.20
74.56
52.21
33.31
18.45
7.63
0.44
-3.69
-5.25
-4.77
-2.89
-0.59
0.79
-0.18
-4.64
-13.02
-24.78
-38.59
-52.72
-65.74
-77.12
-87.58
-98.99
-113.56
-132.63
-155.39
-178.29
-195.50
-200.49
-188.11
-156.33
-107.12
-45.95
19.57
81.58
133.48
171.02
192.62
199.04
192.73
176.99
155.23
130.48
105.22
81.39
60.49
43.53
30.85
22.16
16.61
13.28
11.51
11.02
11.71
13.31
15.01
15.49
13.19
6.93
-3.63
-17.80
-34.07
-50.63
-65.99
-79.45
-91.46
-103.50
-117.56
-135.27
-156.71
-179.64
-199.51
-210.42
-206.89
-185.57
-146.35
-92.42
-29.50
35.48
95.59
144.93
179.48
197.49
199.66
188.72
168.62
143.53
116.93
91.26
67.98
47.96
31.72
19.51
11.25
6.53
4.66
4.87
6.30
7.97
8.78
7.54
3.24
-4.69
-16.07
-29.98
-44.98
-59.59
-72.79
-84.47
-95.60
-107.92
-123.20
-142.12
-163.32
-183.03
-195.80
-195.98
-179.40
-144.95
-95.02
-35.08
27.63
85.66
132.82
165.20
181.54
183.05
172.70
154.24
131.33
106.92
83.07
61.09
41.89
26.09
14.14
6.15
1.88
0.75
1.87
4.11
6.18
6.84
5.06
0.31
-7.36
-17.30
-28.51
-40.02
-51.18
-62.09
-73.64
-87.32
-104.39
-124.85
-146.58
-165.20
-174.90
-170.17
-147.68
-107.74
-54.49
5.04
62.82
111.84
147.61
168.54
175.64
171.37
158.56
139.67
116.61
91.10
64.99
40.55
20.12
5.45
-2.92
-5.92
-5.57
-4.21
-3.74
-5.11
-8.31
-12.85
-18.14
-23.96
-30.45
-38.11
-47.56
-59.47
-74.50
-92.92
-114.13
-135.95
-154.49
-164.58
-161.03
-140.50
-102.85
-51.79
5.95
62.34
110.21
144.85
164.66
170.69
165.50
152.03
132.83
109.98
85.24
60.40
37.43
18.16
3.97
-4.67
-8.33
-8.37
-6.53
-4.50
-3.52
-4.25
-6.82
-11.03
-16.52
-22.95
-30.09
-37.90
-46.65
-56.97
-69.83
-86.14
-105.94
-127.57
-147.30
-159.75
-159.25
-141.73
-106.31
-56.00
2.89
62.46
115.19
155.70
181.50
192.75
191.49
180.62
163.21
142.05
119.52
97.63
77.93
61.42
48.44
38.73
31.66
26.64
23.28
21.45
20.92
21.10
20.87
18.72
13.26
3.71
-9.68
-25.65
-42.39
-58.15
-71.97
-84.15
-96.25
-110.44
-128.49
-150.41
-173.68
-193.31
-203.12
-197.58
-173.68
-132.02
-76.78
-14.61
47.03
101.46
143.92
172.09
185.92
187.15
178.50
163.02
143.50
122.37
101.67
83.16
68.23
57.68
51.42
48.49
47.44
46.90
46.07
44.80
43.38
41.98
40.28
37.33
31.94
23.05
10.33
-5.60
-23.34
-41.10
-57.24
-70.81
-81.79
-91.25
-101.09
-113.49
-130.17
-151.27
-174.67
-195.94
-209.23
-208.97
-191.49
-156.30
-106.16
-46.41
16.33
75.49
125.56
162.78
185.41
193.59
189.04
174.48
152.99
127.56
100.88
75.40
53.38
36.59
26.02
21.50
21.75
24.85
28.93
32.75
35.80
38.09
39.49
39.40
36.65
29.89
18.22
1.72
-18.37
-39.98
-60.80
-79.01
-93.84
-105.66
-115.93
-126.70
-139.88
-156.30
-174.89
-192.41
-204.03
-204.53
-189.88
-158.59
-112.19
-55.08
6.50
65.71
116.39
154.02
176.43
183.81
178.40
163.67
143.35
120.63
97.86
76.52
57.65
42.03
30.22
22.47
18.63
18.10
19.95
23.02
25.98
27.52
26.52
22.31
14.90
4.93
-6.51
-18.26
-29.53
-40.22
-51.00
-63.27
-78.65
-98.08
-120.89
-144.07
-162.42
-169.68
-160.51
-132.53
-87.57
-31.54
27.24
80.50
122.22
149.73
163.44
165.57
158.71
144.91
125.58
102.07
76.24
50.67
28.22
11.22
0.64
-4.21
-5.32
-5.12
-5.56
-7.59
-10.97
-14.85
-18.45
-21.58
-24.91
-29.70
-37.46
-49.47
-66.41
-87.98
-112.48
-136.57
-155.46
-163.67
-156.46
-131.46
-89.86
-36.53
21.20
75.46
119.98
151.34
168.91
174.05
168.81
155.07
134.39
108.47
79.65
50.98
25.72
6.39
-6.06
-12.51
-15.18
-16.61
-18.63
-21.90
-25.93
-29.80
-32.89
-35.42
-38.55
-44.04
-53.74
-69.01
-90.11
-115.58
-142.05
-164.44
-176.88
-174.22
-153.56
-115.38
-63.74
-5.34
52.20
102.16
140.13
164.35
175.28
174.64
164.49
146.82
123.54
96.90
69.59
44.60
24.48
10.53
2.36
-1.87
-4.63
-7.91
-12.55
-18.21
-23.87
-28.69
-32.60
-36.54
-42.18
-51.43
-65.89
-86.22
-111.50
-138.80
-163.30
-179.04
-180.37
-163.70
-128.75
-78.98
-20.75
38.29
91.09
132.68
160.71
175.23
177.79
170.64
155.98
135.85
112.16
87.02
62.73
41.54
25.11
13.99
7.48
3.95
1.49
-1.41
-5.53
-10.89
-17.20
-24.18
-31.83
-40.50
-50.71
-63.10
-78.37
-97.19
-119.80
-145.31
-171.11
-192.78
-204.92
-202.53
-182.65
-145.38
-94.10
-34.65
26.03
81.28
125.92
156.88
173.35
176.57
169.19
154.50
135.70
115.34
95.20
76.42
59.78
45.88
35.08
27.52
22.97
20.92
20.47
20.49
19.70
16.93
11.39
2.78
-8.60
-22.04
-36.67
-51.76
-67.05
-82.95
-100.44
-120.59
-143.56
-167.72
-189.30
-203.03
-203.59
-187.38
-153.71
-105.18
-46.98
14.37
72.30
121.34
157.75
179.89
188.19
184.78
172.79
155.57
136.07
116.51
98.55
83.45
72.15
65.05
61.84
61.51
62.65
63.89
64.30
63.47
61.38
58.06
53.34
46.74
37.68
25.72
10.93
-6.04
-24.07
-41.84
-58.25
-72.68
-85.18
-96.33
-107.31
-119.62
-134.75
-153.46
-174.98
-196.36
-212.84
-218.88
-209.96
-183.94
-141.81
-87.33
-26.08
35.73
92.25
138.64
171.63
189.88
194.04
186.51
170.69
150.10
127.74
105.85
86.14
70.03
58.62
52.45
51.14
53.39
57.32
61.10
63.40
63.66
62.00
58.82
54.38
48.55
40.81
30.50
17.27
1.38
-16.20
-34.00
-50.52
-64.74
-76.46
-86.38
-95.94
-107.00
-121.20
-139.24
-160.14
-180.82
-196.41
-201.38
-191.07
-163.25
-119.03
-62.78
-1.08
58.80
110.46
149.45
173.74
183.51
180.52
167.51
147.48
123.49
98.33
74.59
54.40
39.22
29.55
24.78
23.56
24.32
25.82
27.48
29.22
31.08
32.70
33.18
31.25
25.70
15.96
2.47
-13.42
-29.77
-44.75
-57.21
-67.12
-75.60
-84.55
-96.09
-111.68
-131.25
-152.59
-171.33
-181.83
-178.59
-158.06
-120.01
-67.98
-8.47
50.69
102.23
141.06
164.84
173.89
170.28
156.98
137.12
113.57
88.84
65.13
44.25
27.57
15.79
8.94
6.43
7.37
10.79
15.71
21.10
25.80
28.52
28.01
23.51
15.03
3.40
-9.90
-23.28
-35.61
-46.58
-56.99
-68.47
-82.90
-101.33
-122.92
-144.28
-159.78
-162.96
-148.73
-115.51
-66.29
-7.99
50.50
100.99
138.11
160.06
168.06
164.92
153.62
136.55
115.40
91.63
66.91
43.17
22.45
6.42
-4.03
-8.97
-9.32
-6.55
-2.37
1.61
4.13
4.30
1.70
-3.63
-11.29
-20.65
-31.04
-41.93
-53.28
-65.63
-80.06
-97.60
-118.36
-140.61
-160.38
-172.01
-169.69
-149.45
-110.94
-57.96
2.32
61.33
111.46
147.71
168.39
174.59
169.04
154.97
135.36
112.69
89.02
66.07
45.36
28.00
14.68
5.54
0.33
-1.50
-0.66
1.97
5.25
7.88
8.55
6.11
0.03
-9.55
-21.72
-35.18
-48.60
-61.18
-73.05
-85.32
-99.69
-117.55
-138.75
-160.84
-179.06
-187.30
-179.95
-153.95
-110.02
-52.92
9.80
69.74
119.70
155.17
174.72
179.56
172.55
157.12
136.50
113.42
90.05
68.10
48.88
33.25
21.58
13.67
9.08
7.25
7.67
9.80
12.83
15.55
16.44
14.01
7.36
-3.49
-17.55
-33.11
-48.40
-62.21
-74.34
-85.74
-98.19
-113.54
-132.63
-154.22
-174.67
-188.41
-189.45
-173.22
-138.34
-87.35
-26.27
36.93
94.27
139.54
169.36
183.20
182.80
171.21
151.88
128.08
102.65
77.99
55.98
37.96
24.54
15.61
10.47
8.22
8.15
9.78
12.71
16.26
19.27
20.21
17.59
10.51
-0.92
-15.60
-31.72
-47.37
-61.21
-72.87
-83.20
-94.03
-107.55
-125.18
-146.47
-168.49
-185.95
-192.61
-183.14
-155.02
-109.60
-51.96
10.38
69.37
118.24
152.74
171.45
175.46
167.41
150.70
128.66
104.19
79.60
56.69
36.85
21.04
9.78
3.08
0.47
1.20
4.34
8.78
13.25
16.36
16.72
13.36
6.00
-4.81
-17.80
-31.40
-44.28
-55.78
-66.22
-76.88
-89.57
-105.79
-125.65
-147.08
-165.63
-175.38
-170.62
-147.90
-107.55
-53.94
5.51
62.39
109.55
142.60
160.36
164.30
157.30
142.44
122.30
98.81
73.67
48.78
26.36
8.70
-2.50
-6.79
-5.26
-0.13
5.86
10.40
12.15
10.87
7.22
2.10
-3.79
-10.28
-17.69
-26.66
-37.94
-52.21
-69.88
-90.68
-113.02
-133.61
-147.58
-149.49
-135.07
-103.09
-56.36
-1.31
53.75
101.13
135.77
156.00
162.99
159.35
147.72
130.15
108.18
83.36
57.74
33.85
14.20
0.59
-6.48
-8.01
-6.03
-2.97
-0.87
-0.89
-3.22
-7.36
-12.62
-18.52
-25.10
-32.81
-42.40
-54.75
-70.61
-90.24
-112.81
-135.89
-155.30
-165.67
-161.87
-140.67
-102.29
-50.75
6.95
62.75
109.63
143.17
162.08
167.58
162.26
148.97
130.25
108.15
84.55
61.31
40.38
23.50
11.82
5.58
3.99
5.51
8.25
10.44
10.79
8.71
4.20
-2.36
-10.46
-19.70
-29.91
-41.09
-53.50
-67.64
-84.17
-103.58
-125.40
-147.56
-166.08
-175.64
-171.01
-148.85
-109.22
-56.11
3.47
61.28
110.08
145.21
165.18
171.24
166.23
153.40
135.56
114.90
93.10
71.65
52.04
35.68
23.60
16.17
12.97
12.91
14.50
16.14
16.41
14.31
9.34
1.57
-8.45
-19.87
-31.84
-43.78
-55.60
-67.78
-81.29
-97.25
-116.16
-137.17
-157.44
-172.35
-176.36
-164.79
-135.49
-90.05
-33.79
25.63
80.13
123.34
151.81
165.23
165.65
156.29
140.49
121.07
100.22
79.62
60.71
44.65
32.33
24.16
19.97
19.15
20.76
23.74
26.85
28.89
28.67
25.23
18.13
7.61
-5.40
-19.54
-33.43
-46.17
-57.62
-68.62
-80.74
-95.66
-114.28
-135.69
-156.58
-171.60
-174.69
-161.10
-129.28
-81.87
-25.16
32.67
83.89
123.11
148.06
159.17
158.53
148.75
132.41
111.94
89.83
68.61
50.54
37.20
29.00
25.22
24.36
24.90
25.86
26.96
28.31
29.92
31.19
30.86
27.42
19.79
7.90
-7.16
-23.39
-38.63
-51.31
-61.06
-68.77
-76.38
-86.24
-100.22
-118.72
-139.89
-159.48
-171.56
-170.15
-151.25
-114.48
-63.66
-5.83
50.68
98.61
133.40
153.70
160.68
156.90
145.18
128.08
107.80
86.45
66.06
48.43
34.86
25.88
21.24
20.13
21.62
24.81
28.82
32.70
35.25
35.17
31.40
23.53
12.08
-1.66
-16.01
-29.55
-41.55
-52.26
-62.81
-74.83
-89.83
-108.31
-128.89
-147.95
-160.04
-159.32
-141.62
-106.35
-57.18
-1.24
53.04
98.46
130.73
148.92
154.61
150.51
139.31
123.21
104.03
83.49
63.38
45.37
30.73
20.10
13.45
10.29
9.96
11.72
14.73
18.03
20.39
20.46
17.10
9.77
-1.22
-14.75
-29.21
-43.05
-55.37
-66.26
-76.86
-89.03
-104.52
-123.91
-145.72
-165.98
-178.86
-178.20
-159.71
-122.76
-71.07
-11.89
46.15
95.47
131.36
152.49
160.29
157.53
147.14
131.60
112.97
93.17
74.11
57.53
44.55
35.41
29.49
25.76
23.39
22.08
21.93
23.03
24.91
26.31
25.39
20.56
11.05
-2.54
-18.49
-34.53
-48.72
-60.18
-69.38
-77.94
-88.13
-102.00
-120.23
-141.42
-161.68
-175.22
-175.85
-159.11
-124.08
-74.13
-16.18
41.36
91.04
128.15
151.25
161.46
161.15
152.79
138.51
120.20
99.95
80.05
62.68
49.33
40.35
34.96
31.78
29.54
27.68
26.40
26.25
27.51
29.69
31.37
30.75
26.29
17.45
4.99
-9.33
-23.28
-35.06
-43.84
-50.01
-55.03
-60.95
-69.79
-82.62
-98.77
-115.30
-127.14
-128.15
-112.98
-79.13
-28.18
34.17
99.70
160.08
209.08
243.89
264.89
274.57
276.08
272.30
265.68
258.39
252.47
249.57
250.46
254.50
259.90
264.32
265.91
264.01
258.97
251.59
242.29
230.75
216.13
197.77
175.86
151.52
126.47
102.18
79.37
57.79
36.63
15.03
-7.47
-30.81
-54.49
-77.89
-100.33
-121.23
-140.16
-156.91
-171.77
-185.46
-199.24
-214.45
-232.23
-253.16
-277.28
-304.45
-334.98
-370.07
-411.47
-460.41
-515.91
-573.47
-625.29
-662.10
-676.22
-664.42
-629.17
-577.51
-518.27
-458.93
-403.62
-353.07
-305.87
-260.09
-214.23
-167.37
-119.11
-69.87
-21.64
21.61
54.58
72.46
73.42
60.26
40.19
22.71
16.41
26.49
53.59
94.42
143.37
194.10
240.72
278.41
303.73
314.93
312.16
297.40
273.96
245.71
216.25
188.36
163.78
143.21
126.44
112.59
100.46
88.97
77.42
65.67
53.94
42.45
31.23
19.85
7.49
-7.05
-25.07
-47.55
-74.52
-104.39
-133.66
-157.34
-170.05
-167.56
-148.00
-112.39
-64.24
-8.67
48.65
102.33
147.71
181.19
200.45
204.76
195.11
174.16
145.77
114.32
83.89
57.55
36.94
22.18
12.12
5.02
-0.81
-6.45
-12.21
-17.95
-23.46
-28.95
-35.17
-43.38
-55.03
-71.40
-92.99
-118.89
-146.33
-170.70
-186.29
-187.77
-171.79
-138.33
-90.98
-36.18
18.49
66.20
102.25
124.61
133.57
130.91
119.16
101.07
79.44
57.00
36.23
18.89
5.68
-3.85
-11.07
-17.57
-24.43
-31.86
-39.23
-45.63
-50.47
-54.01
-57.45
-62.72
-71.94
-86.68
-107.11
-131.34
-155.35
-173.69
-180.91
-173.08
-149.09
-110.89
-62.98
-11.22
38.52
81.25
113.36
132.79
138.89
132.23
114.51
88.26
56.57
22.76
-10.07
-39.45
-63.93
-83.37
-98.88
-112.40
-126.13
-141.87
-160.73
-182.91
-207.78
-234.11
-260.20
-284.11
-303.77
-317.21
-322.85
-319.81
-308.25
-289.39
-265.50
-239.33
-213.54
-190.16
-170.31
-154.27
-141.79
-132.53
-126.25
-122.90
-122.44
-124.74
-129.55
-136.47
-145.08
-154.90
-165.30
-175.47
-184.40
-190.94
-193.89
-192.23
-185.26
-172.74
-154.85
-132.13
-105.32
-75.22
-42.70
-8.69
25.70
59.18
90.30
117.70
140.44
158.23
171.50
181.33
189.02
195.67
201.80
207.22
211.24
213.13
212.59
210.08
206.70
203.81
202.42
202.74
204.21
205.68
206.05
204.91
202.82
201.30
202.57
208.97
222.41
243.50
270.77
300.37
326.64
343.69
347.67
338.46
320.14
299.71
284.56
279.88
287.02
303.36
323.38
340.47
348.66
343.88
324.68
292.27
250.01
202.50
154.47
109.78
70.99
39.26
14.54
-4.17
-18.62
-31.02
-43.50
-57.57
-73.55
-90.48
-106.50
-119.52
-127.92
-131.05
-129.45
-124.60
-118.37
-112.18
-106.32
-99.52
-89.40
-73.44
-50.29
-20.59
12.93
46.42
76.13
99.58
115.92
125.56
129.38
128.10
122.19
112.11
98.73
83.51
68.22
54.49
43.35
35.04
29.08
24.66
21.04
17.77
14.68
11.69
8.57
4.82
-0.40
-7.91
-18.11
-30.47
-43.24
-53.65
-58.58
-55.61
-43.87
-24.49
-0.33
24.88
47.57
65.13
76.31
81.03
80.02
74.39
65.42
54.38
42.49
30.85
20.22
11.07
3.49
-2.65
-7.56
-11.42
-14.36
-16.51
-18.04
-19.35
-21.05
-23.98
-29.04
-36.87
-47.31
-59.06
-69.55
-75.52
-74.02
-63.50
-44.58
-19.89
6.74
31.54
51.79
66.22
74.79
78.02
76.58
71.13
62.47
51.71
40.25
29.50
20.47
13.54
8.38
4.33
0.70
-2.83
-6.19
-9.06
-11.14
-12.47
-13.53
-15.21
-18.58
-24.60
-33.68
-45.31
-57.79
-68.34
-73.73
-71.21
-59.58
-39.72
-14.52
12.09
36.35
55.72
69.27
77.42
81.20
81.52
78.86
73.37
65.25
55.13
44.18
33.83
25.39
19.53
16.12
14.30
12.92
10.99
8.02
4.13
-0.21
-4.53
-8.61
-12.61
-16.88
-21.85
-27.89
-35.22
-43.93
-53.89
-64.51
-74.39
-81.37
-82.85
-76.62
-61.78
-39.32
-12.02
16.33
42.05
62.55
76.75
84.83
87.64
86.16
81.20
73.46
63.79
53.27
43.16
34.60
28.32
24.47
22.58
21.87
21.47
20.74
19.45
17.75
15.98
14.44
13.12
11.61
9.25
5.40
-0.27
-7.46
-15.39
-23.07
-29.67
-34.91
-39.13
-43.04
-47.47
-53.08
-60.23
-68.91
-78.58
-87.96
-95.00
-97.15
-92.07
-78.54
-57.14
-30.30
-1.68
24.99
46.91
62.75
72.47
76.82
76.68
72.79
65.85
56.64
46.28
36.13
27.46
21.19
17.56
16.15
16.07
16.32
16.16
15.34
14.08
12.81
11.83
11.08
10.04
7.96
4.24
-1.26
-8.09
-15.40
-22.20
-27.86
-32.25
-35.73
-38.97
-42.68
-47.46
-53.67
-61.25
-69.56
-77.13
-81.87
-81.50
-74.36
-60.13
